Signal
-0,223131
-0,204493
-0,115402
-0,097733
-0,139359
-0,081209
-0,109020
-0,175965
-0,117640
-0,131316
-0,121151
-0,185127
-0,196297
-0,264300
-0,161617
-0,213715
-0,225300
-0,218666
-0,227666
-0,171897
-0,150728
-0,175155
-0,169747
-0,172970
-0,122627
-0,158121
-0,066938
-0,179189
-0,067093
-0,140576
-0,105429
-0,266795
-0,223808
-0,177246
-0,240324
-0,219199
-0,187019
-0,201793
-0,152425
-0,173263
-0,095684
-0,078055
-0,048470
-0,068083
-0,108814
-0,121461
-0,148160
-0,154469
-0,128612
-0,074818
-0,046427
-0,219752
-0,171216
-0,193790
-0,101410
-0,135304
-0,233831
-0,268199
-0,243895
-0,005630
-0,087294
-0,212553
-0,066912
-0,075252
-0,048035
-0,059501
-0,102932
-0,073306
-0,088602
-0,004689
-0,103431
-0,084458
-0,144142
-0,195098
-0,183683
-0,121142
-0,074761
-0,121173
-0,111388
-0,120957
-0,125119
-0,050469
-0,163661
-0,027424
-0,049899
0,001863
-0,032923
-0,018642
-0,091305
-0,027226
-0,004184
-0,076058
-0,062055
-0,087842
-0,186518
-0,037458
-0,065163
-0,131311
-0,144829
-0,165660
-0,084346
-0,117634
-0,103382
-0,099528
-0,039604
-0,045863
0,037972
-0,046297
-0,086557
-0,004444
-0,118936
-0,164542
-0,115208
-0,100835
-0,069825
-0,031839
-0,171768
-0,170858
-0,124316
-0,129992
0,023748
-0,008893
-0,014166
0,027101
-0,017591
-0,043884
-0,089815
-0,054227
-0,034791
-0,153582
-0,120236
-0,128964
-0,207630
-0,173955
-0,114764
-0,206396
-0,216027
-0,200165
-0,211572
-0,178342
-0,085445
-0,113446
-0,154142
-0,088453
-0,060355
-0,074452
-0,010528
-0,057302
-0,102359
-0,136327
-0,165347
-0,135076
-0,149607
-0,242911
-0,134813
-0,231485
-0,207539
-0,290331
-0,184313
-0,151778
-0,136318
-0,148390
-0,096757
-0,087867
-0,115106
-0,175871
-0,122119
-0,173645
-0,138133
-0,083240
-0,186890
-0,216982
-0,129018
-0,205434
-0,159334
-0,217106
-0,204065
-0,187953
-0,165035
-0,297177
-0,210028
-0,188545
-0,133450
-0,173021
-0,185032
-0,072423
-0,124820
-0,123815
-0,239603
-0,132888
-0,209639
-0,223349
-0,283579
-0,257835
-0,185886
-0,181257
-0,166283
-0,222682
-0,210135
-0,178453
-0,288941
-0,195320
-0,193944
-0,196297
-0,168798
-0,145637
-0,124648
-0,180730
-0,201309
-0,173040
-0,219777
-0,231204
-0,227738
-0,186035
-0,222185
-0,157674
-0,354338
-0,334109
-0,239670
-0,193809
-0,083455
-0,116889
-0,060809
-0,022966
0,037661
0,094155
0,151162
0,220319
0,072185
0,221380
0,249131
0,394422
0,418692
0,395393
0,483933
0,559163
0,695709
0,660514
0,741075
0,901458
1,035693
1,034607
1,138275
1,154687
1,178379
1,133344
1,190073
1,125486
1,059267
1,043586
1,048603
1,015497
0,780360
0,782413
0,781457
0,611832
0,610099
0,587242
0,342507
0,435500
0,318144
0,287930
0,308276
0,067194
0,184210
0,113649
0,005778
-0,012047
-0,072476
-0,131365
-0,168498
-0,161389
-0,244522
-0,330795
-0,341212
-0,298757
-0,326355
-0,280642
-0,369228
-0,248124
-0,187354
-0,287639
-0,190424
-0,183344
-0,235964
-0,276577
-0,136493
-0,145130
-0,180979
-0,159474
-0,130370
-0,224497
-0,218926
-0,244232
-0,280190
-0,248504
-0,290463
-0,268486
-0,197029
-0,153362
-0,146848
-0,238924
-0,149060
-0,207593
-0,131145
-0,209211
-0,188829
-0,220858
-0,244327
-0,093870
-0,166436
-0,229650
-0,203307
-0,211325
-0,284751
-0,273112
-0,334173
-0,266079
-0,335324
-0,079269
-0,153906
-0,145921
-0,193158
-0,082317
-0,192169
-0,141259
-0,212451
-0,133766
-0,161280
-0,168648
-0,256196
-0,253265
-0,255820
-0,249885
-0,138963
-0,167702
-0,219075
-0,210642
-0,159867
-0,106332
-0,154222
-0,190713
-0,127441
-0,181382
-0,126501
-0,097970
-0,090628
-0,214767
-0,129927
-0,122679
-0,167747
-0,177128
-0,210414
-0,204843
-0,156474
-0,160940
-0,148410
-0,172022
-0,168171
-0,231292
-0,208025
-0,136202
-0,134734
-0,163460
-0,155332
-0,149265
-0,075429
-0,167366
-0,083068
-0,106043
-0,124488
-0,121275
-0,278500
-0,234397
-0,289422
-0,241423
-0,281445
-0,213423
-0,200733
-0,210291
-0,268982
-0,175279
-0,138720
-0,227297
-0,006496
-0,069469
-0,149789
-0,209828
-0,146576
-0,148414
-0,186574
-0,149892
-0,182511
-0,156453
-0,198273
-0,211146
-0,179959
-0,090271
-0,260405
-0,230009
-0,149668
-0,051123
-0,131757
-0,053305
-0,103637
-0,101490
-0,130267
-0,118844
-0,049286
-0,011698
-0,071802
-0,229160
-0,138179
-0,201807
-0,166480
-0,149224
-0,221777
-0,230521
-0,118048
-0,231739
-0,173201
-0,034392
-0,183778
-0,123241
0,005157
0,013938
-0,062258
-0,118606
-0,184949
-0,057462
-0,129448
-0,187525
-0,170448
-0,166649
-0,270132
-0,106414
-0,020561
-0,210342
-0,095514
-0,117855
-0,072562
-0,066831
-0,086484
-0,021688
0,015782
-0,075759
-0,071118
-0,073495
-0,062467
-0,029258
-0,078811
-0,057137
-0,154076
-0,149846
-0,103904
-0,126041
-0,105295
-0,103524
-0,041339
-0,093049
-0,031956
0,003488
-0,074646
0,013252
0,008514
0,009633
0,056726
0,026456
0,054799
0,067331
-0,053462
-0,027661
0,008538
-0,142938
-0,121619
-0,067241
0,028421
-0,029937
-0,048529
0,089205
0,125766
-0,026321
0,059483
-0,009429
0,145151
0,028382
0,087429
0,128330
0,071594
0,097308
0,085496
0,040987
0,053238
0,009129
-0,010074
0,077708
-0,035850
0,010885
-0,015945
0,037052
0,094229
0,126365
0,135451
0,075050
0,153815
0,218712
0,156023
0,093135
0,100867
0,052423
0,082035
0,079994
0,050013
0,029932
0,003622
-0,061021
0,028828
0,025189
-0,005712
-0,034691
-0,031448
0,166046
0,081419
0,187184
0,042675
0,101966
0,143447
0,157468
0,231287
0,093845
0,054484
0,075743
0,103444
-0,040439
0,016067
0,090290
-0,063749
0,025129
-0,024281
0,023265
0,009193
0,038685
0,144607
0,086054
0,137611
0,096544
0,146255
0,011530
0,042268
-0,007318
0,012917
-0,007291
-0,009180
0,001706
0,014854
-0,113466
-0,001485
-0,043728
0,066036
-0,040953
-0,042011
0,022860
0,050170
-0,030218
0,038118
0,061646
-0,010786
0,062893
-0,052481
-0,029461
-0,083910
0,003730
-0,019947
-0,127672
0,001968
-0,231447
-0,116729
-0,156852
-0,056881
-0,022246
-0,050206
-0,059193
-0,038119
0,026523
-0,020871
-0,070773
-0,064621
-0,032734
0,006410
-0,137000
-0,126410
-0,127194
-0,092838
-0,057283
-0,135462
-0,149934
-0,122703
-0,139615
-0,103964
-0,142788
-0,150653
-0,098557
-0,031882
-0,017482
-0,074453
-0,077358
-0,041611
-0,119917
-0,105443
-0,176979
-0,171611
-0,134754
-0,207350
-0,126982
-0,125025
-0,165285
-0,182166
-0,203863
-0,175100
-0,193277
-0,168833
-0,055902
-0,136341
-0,086813
-0,049782
-0,175806
-0,076197
-0,165621
-0,109896
-0,200848
-0,169600
-0,132503
-0,176770
-0,160056
-0,221201
-0,217253
-0,157058
-0,159709
-0,257164
-0,096429
-0,256207
-0,130654
-0,052269
-0,117779
-0,049098
-0,089079
-0,111866
-0,185550
-0,104885
-0,101552
-0,258990
-0,106836
-0,165036
-0,209176
-0,229516
-0,224427
-0,273615
-0,211889
-0,255858
-0,303662
-0,210798
-0,115705
-0,188961
-0,103340
-0,168960
-0,106214
-0,022791
-0,173485
-0,098811
-0,169897
-0,168093
-0,139612
-0,228135
-0,211424
-0,248802
-0,151223
-0,122070
-0,162555
-0,240979
-0,196086
-0,211463
-0,105703
-0,215428
-0,008000
-0,132395
-0,203876
-0,074605
-0,200993
-0,204784
-0,145585
-0,077616
-0,201688
-0,157677
-0,266692
-0,225115
-0,200593
-0,252720
-0,161529
-0,197976
-0,175383
-0,098030
-0,113349
-0,176725
-0,046053
-0,146785
-0,082936
-0,077969
-0,149404
-0,148880
-0,158523
-0,205818
-0,117306
-0,230122
-0,277947
-0,175165
-0,274271
-0,210767
-0,251074
-0,280618
-0,156779
-0,215111
-0,175323
-0,133097
-0,092942
-0,044523
-0,099486
-0,105002
-0,136313
-0,214079
-0,184966
-0,189340
-0,209092
-0,204533
-0,266276
-0,277269
-0,254906
-0,194912
-0,182661
-0,125378
-0,178648
-0,124933
-0,222923
-0,176147
-0,160398
-0,174053
-0,090638
-0,105710
-0,153224
-0,097918
-0,129750
-0,086064
-0,221145
-0,211720
-0,321217
-0,289241
-0,225671
-0,171491
-0,207043
-0,209454
-0,190666
-0,128890
-0,154959
-0,110541
-0,114333
-0,132546
-0,137675
-0,165535
-0,127098
-0,141452
-0,217561
-0,104274
-0,191972
-0,188931
-0,168139
-0,240038
-0,079508
-0,253209
-0,206294
-0,219628
-0,154611
-0,176790
-0,215896
-0,111773
-0,105710
-0,197327
-0,161974
-0,179193
-0,125530
-0,074046
-0,118779
-0,216174
-0,158533
-0,297276
-0,211176
-0,200163
-0,301950
-0,252165
-0,175656
-0,253875
-0,242214
-0,206454
-0,079834
-0,103876
-0,092210
-0,130271
-0,182440
-0,119743
-0,150509
-0,200201
-0,129730
-0,134121
-0,217724
-0,191425
-0,151329
-0,246182
-0,177079
-0,186936
-0,205073
-0,201708
-0,149350
-0,228646
-0,121387
-0,181128
-0,167585
-0,065967
-0,006660
-0,158968
-0,151265
-0,173301
-0,151754
-0,169837
-0,164971
-0,199686
-0,158650
-0,183927
-0,184970
-0,218071
-0,223029
-0,284955
-0,114851
-0,127079
-0,132226
-0,162186
-0,214534
-0,047019
-0,093367
-0,096361
-0,157533
-0,055452
-0,166816
-0,159244
-0,231700
-0,167637
-0,200270
-0,257535
-0,170038
-0,205948
-0,151687
-0,087160
-0,146979
-0,146261
-0,126322
-0,191632
-0,125173
-0,072532
-0,131397
-0,130124
-0,211417
-0,095672
-0,077462
-0,235890
-0,225286
-0,155343
-0,132194
-0,164612
-0,206164
-0,273478
-0,140049
-0,259250
-0,126482
-0,050359
-0,080999
-0,128815
-0,106719
-0,134509
-0,126995
-0,123341
-0,182011
-0,105073
-0,151938
-0,137017
-0,153570
-0,201867
-0,144842
-0,233454
-0,167591
-0,218307
-0,153233
-0,209465
-0,216375
-0,151716
-0,132589
-0,157194
-0,106831
-0,095838
-0,127527
-0,021443
-0,048876
-0,130472
-0,134431
-0,053284
-0,230075
-0,163481
-0,196865
-0,230752
-0,186926
-0,183522
-0,243058
-0,046757
-0,148194
-0,176009
-0,170779
-0,070931
-0,004153
-0,060473
-0,058627
-0,112190
-0,044246
-0,134168
-0,153572
-0,145174
-0,120986
-0,208561
-0,198081
-0,148436
-0,135429
-0,200996
-0,211416
-0,180266
-0,185527
-0,097496
-0,087430
-0,116582
-0,086653
-0,085074
-0,021683
-0,110878
-0,012000
-0,134604
-0,127472
-0,175708
-0,234110
-0,193735
-0,191138
-0,300701
-0,184253
-0,191467
-0,192283
-0,241724
-0,125442
-0,099042
-0,102311
-0,142368
-0,094334
-0,066009
-0,080658
-0,155179
-0,047192
-0,112281
-0,058531
-0,165533
-0,113860
-0,184781
-0,160949
-0,152327
-0,182607
-0,226998
-0,192973
-0,102407
-0,199194
-0,122319
-0,190596
-0,074284
-0,098095
-0,020791
-0,063650
-0,016214
-0,192147
-0,065597
-0,106535
-0,064351
-0,169220
-0,160025
-0,233284
-0,204584
-0,141937
-0,169017
-0,105441
-0,183316
-0,175502
-0,108026
-0,075704
-0,119286
-0,137385
-0,036597
-0,143594
-0,008034
-0,060187
-0,166848
-0,158675
-0,080845
-0,075969
-0,134854
-0,149227
-0,182035
-0,195986
-0,149374
-0,213248
-0,117087
-0,106308
-0,145907
-0,086462
-0,143220
-0,073152
-0,056672
-0,096782
-0,046333
-0,108165
0,001862
-0,060486
-0,113695
-0,171072
-0,206136
-0,173503
-0,254179
-0,173164
-0,208672
-0,162365
-0,061964
-0,121180
-0,067233
-0,074221
0,016677
-0,020386
-0,028007
-0,013681
0,032923
-0,053803
0,034562
-0,053443
-0,035063
-0,114874
-0,117652
-0,193850
-0,167333
-0,121859
-0,202180
-0,056416
-0,033686
-0,135510
0,024285
-0,068641
-0,000084
-0,012944
-0,006959
0,021275
-0,022884
0,109042
0,028199
0,021895
-0,092710
-0,126421
-0,139134
-0,066731
-0,019488
-0,110541
-0,143543
-0,070573
-0,088546
-0,007187
-0,068388
-0,015360
-0,061922
-0,022173
0,030729
-0,073173
0,054501
0,024096
-0,112016
-0,061196
-0,030865
0,037379
-0,101675
-0,082572
-0,160041
-0,140689
-0,044029
-0,068130
-0,024660
0,028051
-0,097272
-0,045937
-0,042582
-0,090861
0,011051
-0,115263
-0,110498
-0,078952
-0,007987
-0,176343
0,010002
-0,140737
-0,040451
-0,170893
-0,032643
-0,001636
-0,190398
-0,039658
-0,044273
-0,056120
-0,120209
-0,015997
-0,107788
-0,024799
-0,005666
-0,099236
-0,025185
-0,059130
-0,134857
-0,050849
-0,127885
-0,179633
-0,134216
-0,081204
-0,174604
-0,171839
-0,142058
-0,135404
-0,166177
-0,077612
-0,086044
-0,057831
-0,066577
-0,223683
-0,067511
-0,034739
-0,035435
-0,036079
-0,085255
-0,155205
-0,139747
-0,133379
-0,061404
-0,202528
-0,111964
-0,170714
-0,224559
-0,079295
-0,173654
-0,119843
-0,074697
-0,121568
-0,142238
-0,133013
-0,107611
-0,102371
-0,077870
-0,160765
-0,065512
-0,084133
-0,104421
-0,243869
-0,079339
-0,082871
-0,103578
-0,204141
-0,227613
-0,056426
-0,198367
-0,251696
-0,148634
-0,091770
-0,122560
-0,127214
-0,177267
-0,123996
-0,094802
-0,034474
-0,149836
-0,183661
-0,211300
-0,213892
-0,291870
-0,048163
-0,186311
-0,192407
-0,256299
-0,237147
-0,024129
-0,206775
-0,180929
-0,142895
-0,122434
-0,026413
0,006282
0,079646
0,013197
0,091030
0,190296
0,146539
0,133647
0,242341
0,145533
0,318240
0,496341
0,437006
0,534516
0,620617
0,666110
0,848929
0,944156
0,965658
1,109560
1,088097
1,161617
1,114475
1,186074
1,141871
1,273062
1,255174
1,175475
1,195486
1,005113
0,965611
0,970181
0,968595
0,876361
0,783880
0,803581
0,625197
0,521205
0,522256
0,509237
0,340177
0,437806
0,334776
0,162108
0,193052
0,086617
0,082447
0,022540
0,013804
-0,157053
-0,174765
-0,190531
-0,194270
-0,236074
-0,242210
-0,240557
-0,251152
-0,300477
-0,241723
-0,150332
-0,146716
-0,201002
-0,134464
-0,091884
-0,115112
-0,108025
-0,188228
-0,170707
-0,120115
-0,130133
-0,178607
-0,197734
-0,177511
-0,185220
-0,186545
-0,322395
-0,176587
-0,212213
-0,149130
-0,132482
-0,094251
-0,082708
-0,154367
-0,093704
-0,082425
-0,088608
-0,119549
-0,096006
-0,262708
-0,155317
-0,222797
-0,183827
-0,328412
-0,207197
-0,195494
-0,215219
-0,101990
-0,248811
-0,064458
-0,085413
-0,080923
-0,159051
-0,141097
-0,119946
-0,136402
-0,060154
-0,201246
-0,137354
0,003735
-0,145496
-0,116982
-0,179644
-0,152473
-0,154354
-0,103505
-0,099074
-0,064783
-0,178224
-0,110623
-0,140814
-0,141793
-0,128340
-0,041590
-0,044084
-0,090536
-0,151475
-0,200826
-0,114831
-0,102695
-0,240645
-0,191437
-0,158612
-0,189528
-0,105081
-0,241961
-0,082770
-0,145838
-0,175984
-0,116598
-0,063284
-0,070991
-0,094960
-0,056307
-0,061517
-0,009068
-0,129902
-0,135757
-0,127966
-0,090610
-0,146987
-0,194908
-0,111883
-0,213835
-0,200434
-0,155318
-0,102995
-0,144010
-0,164638
-0,125905
-0,059202
-0,025119
-0,068580
-0,046130
-0,084386
-0,099361
-0,109347
-0,122782
-0,113852
-0,163100
-0,112694
-0,179610
-0,197352
-0,086968
-0,177425
-0,131382
-0,105744
-0,083266
-0,078179
-0,083307
-0,105013
-0,134408
-0,070932
-0,223583
-0,070092
-0,116339
-0,064692
-0,109491
-0,085872
-0,200839
-0,139116
-0,224535
-0,160280
-0,179945
-0,269144
-0,143297
-0,197282
-0,135669
-0,021789
-0,115225
-0,089663
0,015613
-0,051618
0,021905
-0,042528
-0,055548
-0,096197
-0,101862
-0,109063
-0,086073
-0,080902
-0,159512
-0,171299
-0,078710
-0,150642
-0,086258
-0,058342
-0,066405
-0,151862
0,006239
-0,122945
-0,020651
-0,063589
0,008779
0,078448
-0,027295
0,047232
-0,030732
0,047057
-0,028100
-0,125222
-0,093843
-0,135209
-0,032818
-0,015366
-0,136744
0,089807
-0,056057
-0,006553
0,060422
0,033717
0,120054
0,032854
0,096964
0,080940
0,035538
0,038543
-0,016162
0,058875
-0,003548
-0,027751
-0,015604
-0,023989
-0,012875
0,032367
0,082797
0,049859
0,021872
0,093567
0,100689
0,019994
-0,020318
0,078496
0,068597
0,138973
0,126182
0,132495
0,069398
0,056167
0,082049
-0,018525
-0,024738
0,013485
0,013001
0,030966
0,044939
0,069281
0,093179
0,113342
0,238670
0,071379
0,078101
0,206724
0,221240
0,119916
0,024353
0,105316
0,163560
0,078545
0,065284
0,047598
0,009554
0,047515
0,084113
0,043031
0,041005
0,076339
0,175359
0,113422
0,121329
0,101627
0,204030
0,116925
0,112959
0,177192
0,129539
0,279717
0,231231
0,126666
0,080658
0,067488
0,006992
0,125022
0,101256
0,076833
0,140659
0,073867
0,112148
0,062567
0,150974
0,159295
0,137105
0,087223
0,225830
0,221499
0,155343
0,169595
0,083261
0,053388
0,110724
0,069232
0,091034
0,061274
0,095690
0,024356
-0,031920
0,019730
0,126972
0,080378
-0,015259
0,055799
0,108531
0,144995
0,116303
0,113431
0,128195
0,082665
0,018398
0,071762
0,042639
0,044594
0,033508
-0,044242
-0,042133
-0,186116
-0,043180
-0,067690
0,056114
-0,008488
0,084597
0,049326
-0,068940
-0,025275
0,063498
0,067401
0,063325
-0,035732
-0,056187
0,014932
-0,049467
-0,089238
-0,080517
-0,062621
-0,153574
-0,039389
-0,209764
-0,024904
-0,060819
0,032855
-0,007477
-0,091361
-0,050541
-0,025997
0,066034
0,033554
-0,025356
-0,050842
-0,030752
0,016093
-0,056689
-0,067891
-0,056089
-0,197914
-0,107235
-0,183445
-0,176913
-0,117573
-0,158072
-0,023532
-0,160749
-0,040529
-0,032067
0,005081
-0,056295
-0,028694
-0,056531
-0,088163
-0,021175
-0,119593
-0,242826
-0,181932
-0,139669
-0,130644
-0,178729
-0,176912
-0,208452
-0,160151
-0,182954
-0,086557
-0,106633
-0,126077
-0,029677
-0,047515
-0,035206
-0,056886
-0,097184
-0,106130
-0,094825
-0,123830
-0,191703
-0,164749
-0,178369
-0,199733
-0,130526
-0,153294
-0,151011
-0,124362
-0,135181
-0,126587
-0,108336
-0,127404
-0,053035
0,008360
0,016583
-0,053760
-0,065274
-0,172841
-0,093424
-0,023332
-0,207172
-0,203402
-0,168411
-0,213360
-0,250727
-0,123243
-0,137961
-0,235596
-0,188101
-0,113015
-0,026592
-0,058789
-0,095193
-0,124216
-0,064597
-0,082972
-0,141831
-0,130103
-0,145561
0,030380
-0,174571
-0,247734
-0,185135
-0,253538
-0,140027
-0,184114
-0,216696
-0,263844
-0,171859
-0,117465
-0,093198
-0,023268
-0,065190
-0,019141
-0,060068
-0,044506
-0,100750
-0,006074
-0,011863
-0,118008
-0,169509
-0,131179
-0,256201
-0,326924
-0,142518
-0,183791
-0,169121
-0,126898
-0,179428
-0,167775
-0,118158
-0,044455
-0,105286
-0,038652
-0,099935
-0,143865
-0,172631
-0,103902
-0,132149
-0,079579
-0,196785
-0,214591
-0,157475
-0,132875
-0,141238
-0,151511
-0,215779
-0,169339
-0,175568
-0,184416
-0,109295
-0,121180
-0,036927
-0,107910
-0,127181
-0,223266
-0,138164
-0,053919
-0,083235
-0,071199
-0,160543
-0,249181
-0,211637
-0,208901
-0,160422
-0,206014
-0,247119
-0,186698
-0,142660
-0,102315
-0,171023
-0,130974
-0,068059
0,000929
-0,062030
-0,179351
-0,098912
-0,179274
-0,032658
-0,209793
-0,246633
-0,114911
-0,185570
-0,255434
-0,167760
-0,188351
-0,122339
-0,238686
-0,074839
-0,113853
-0,182507
-0,213388
-0,212702
-0,090890
-0,069436
-0,144215
-0,132709
-0,138498
-0,053096
-0,161936
-0,073478
-0,177231
-0,211850
-0,132948
-0,120835
-0,175548
-0,236220
-0,246871
-0,072481
-0,147088
-0,192474
-0,140137
-0,004636
-0,088154
-0,118777
-0,064044
-0,076091
-0,094091
-0,147611
-0,180459
-0,196312
-0,189012
-0,070004
-0,220737
-0,187277
-0,249597
-0,230405
-0,076868
-0,036688
-0,092432
-0,173072
-0,100379
-0,080060
-0,068195
-0,113692
-0,026506
-0,093044
-0,113792
-0,170597
-0,149346
-0,113837
-0,175460
-0,100414
-0,254635
-0,132089
-0,220869
-0,228496
-0,186939
-0,116327
-0,155118
-0,117179
-0,111936
-0,046434
-0,119257
-0,038114
-0,095794
-0,097330
-0,135434
-0,179809
-0,137613
-0,183957
-0,231465
-0,234823
-0,115018
-0,250164
-0,164783
-0,114469
-0,204522
-0,213112
-0,122230
-0,144744
-0,121757
-0,047967
-0,112796
-0,078524
-0,077114
-0,110550
-0,142608
-0,058680
-0,109085
-0,150820
-0,245937
-0,166864
-0,152665
-0,211515
-0,207891
-0,227884
-0,088432
-0,151938
-0,161120
-0,126422
-0,099462
-0,078438
-0,134684
-0,171100
-0,081776
-0,042444
-0,034325
-0,063817
-0,140136
-0,203441
-0,092262
-0,074836
-0,207152
-0,197616
-0,249050
-0,294607
-0,089101
-0,213299
-0,250959
-0,167986
-0,147784
-0,025320
-0,116328
-0,019761
-0,044999
-0,145828
-0,116779
-0,082905
-0,075934
-0,111274
-0,131106
-0,201611
-0,169883
-0,227828
-0,195529
-0,177573
-0,151962
-0,166412
-0,117063
-0,092286
-0,151058
-0,130711
-0,023934
-0,004847
-0,061730
-0,148123
-0,017504
-0,115359
-0,138903
-0,080569
-0,150685
-0,245052
-0,127195
-0,200658
-0,139603
-0,255194
-0,163973
-0,149798
-0,097962
-0,175293
-0,095964
-0,075314
-0,032023
-0,002279
-0,060171
-0,100944
-0,133372
-0,215090
-0,157183
-0,276382
-0,194743
-0,268637
-0,255414
-0,171896
-0,151281
-0,149900
-0,214350
-0,112456
-0,280367
-0,012758
-0,017281
0,015995
-0,172514
-0,070278
-0,197121
-0,053495
-0,021581
-0,100994
-0,198581
-0,226935
-0,198903
-0,077556
-0,206424
-0,235257
-0,236190
-0,174147
-0,144104
-0,150740
-0,140825
-0,060239
-0,153436
-0,155427
-0,080999
-0,088743
-0,137524
-0,137655
-0,105431
-0,011633
-0,114074
-0,122423
-0,129080
-0,154898
-0,159128
-0,221906
-0,245156
-0,108357
-0,141865
-0,146196
-0,111725
-0,051725
-0,102288
-0,132031
-0,113892
-0,008863
-0,081270
-0,077691
-0,208177
-0,112864
-0,172576
-0,189613
-0,026007
-0,197823
-0,152670
-0,192854
-0,181387
-0,208567
-0,085330
-0,155771
-0,176192
-0,142021
-0,106169
-0,121625
-0,096033
-0,072084
-0,056797
-0,089714
-0,052580
-0,180320
-0,104059
-0,168078
-0,111313
-0,188841
-0,119090
-0,225027
-0,084897
-0,092129
-0,093829
-0,026975
-0,189476
-0,058621
-0,084810
-0,097297
-0,048702
-0,046312
0,046743
-0,049275
-0,043465
-0,075376
-0,165211
-0,105536
-0,158372
-0,088070
-0,126548
-0,198426
-0,133921
-0,159416
-0,052433
-0,087828
-0,045324
-0,140781
-0,103404
0,047370
-0,047165
-0,073216
-0,036918
-0,093359
0,027261
0,078578
0,008343
-0,085984
-0,164550
-0,074322
-0,157158
-0,125856
-0,092095
-0,127704
-0,065631
-0,018394
-0,161785
-0,055121
-0,046786
0,049955
0,038092
-0,045907
-0,058323
-0,021399
-0,004930
-0,004530
0,038129
-0,089019
-0,150371
-0,074699
-0,052499
-0,028463
-0,135807
-0,108256
-0,140420
-0,102516
-0,147292
-0,088566
-0,103556
-0,037999
0,056009
0,010994
-0,006078
-0,141465
-0,103370
-0,043406
-0,036423
-0,090982
-0,130364
-0,143583
-0,178415
-0,055373
-0,145369
-0,048154
-0,132984
-0,221273
-0,138112
-0,057127
-0,030406
-0,032749
-0,185021
0,054657
-0,054517
-0,169472
-0,107521
-0,068328
-0,092528
-0,209950
-0,091795
-0,129949
-0,135288
-0,144878
-0,136738
-0,234744
-0,065982
-0,213891
-0,066967
-0,075549
-0,103261
-0,181443
-0,155692
-0,096620
-0,006106
-0,116617
-0,140927
-0,128690
-0,142230
-0,132580
-0,194096
-0,152692
-0,201183
-0,217938
-0,222065
-0,161394
-0,134902
-0,089912
-0,119880
-0,206005
-0,102224
-0,218368
-0,197125
-0,110360
-0,015908
-0,168137
-0,143910
-0,112597
-0,157159
-0,205737
-0,117534
-0,173104
-0,160300
-0,162497
-0,260025
-0,234675
-0,227062
-0,169687
-0,188294
-0,099329
-0,076089
-0,158313
-0,167083
-0,109559
-0,091180
-0,148922
-0,085387
-0,065245
-0,132104
-0,206131
-0,328880
-0,217798
-0,273832
-0,237416
-0,170015
-0,197564
-0,176040
-0,185219
-0,196175
-0,158393
-0,156343
-0,184977
-0,079762
-0,187493
-0,138994
-0,170578
-0,128541
-0,171697
-0,135692
-0,209830
-0,261867
-0,241369
-0,150154
-0,162996
-0,190966
-0,064388
-0,089630
-0,145759
-0,079945
0,030413
0,059268
0,144135
0,204152
0,169770
0,274612
0,315454
0,350179
0,479689
0,516408
0,517735
0,670254
0,650717
0,692922
0,758009
0,925116
0,964724
1,005201
1,104716
1,088886
1,138179
1,226294
1,318230
1,173121
1,202429
1,155509
1,167829
1,085524
1,072831
0,992918
0,785531
0,774885
0,571699
0,667976
0,574081
0,435810
0,449163
0,294433
0,313818
0,187406
0,210190
0,117796
0,106047
0,046393
0,023273
0,081146
-0,016642
-0,086196
-0,121977
-0,235126
-0,167341
-0,275917
-0,351787
-0,238560
-0,387824
-0,360322
-0,409625
-0,392702
-0,223834
-0,228534
-0,202166
-0,218243
-0,148034
-0,216723
-0,129569
-0,144376
-0,101416
-0,180690
-0,231174
-0,233296
-0,227557
-0,183954
-0,230318
-0,282873
-0,200598
-0,127112
-0,174566
-0,260134
-0,212146
-0,163449
-0,145028
-0,075804
-0,186175
-0,184859
-0,094021
-0,187388
-0,226291
-0,158819
-0,135902
-0,179941
-0,220742
-0,292952
-0,257344
-0,321846
-0,263713
-0,272919
-0,230907
-0,207813
-0,185780
-0,124547
-0,159428
-0,215994
-0,094602
-0,101735
-0,152649
-0,034664
-0,201963
-0,239738
-0,147440
-0,219737
-0,199799
-0,250813
-0,199039
-0,216773
-0,262392
-0,277374
-0,250669
-0,235114
-0,184090
-0,233708
-0,238436
-0,188180
-0,203872
-0,140952
-0,139524
-0,150458
-0,066414
-0,165004
-0,243219
-0,131722
-0,210638
-0,228840
-0,167435
-0,264850
-0,276550
-0,298039
-0,179483
-0,192590
-0,332619
-0,172129
-0,251958
-0,194965
-0,167674
-0,165594
-0,128645
-0,100665
-0,022115
-0,156804
-0,256123
-0,176448
-0,289282
-0,222352
-0,216956
-0,235813
-0,143965
-0,136928
-0,249608
-0,256393
-0,126028
-0,205177
-0,252513
-0,193316
-0,069042
-0,007241
-0,105295
-0,203530
-0,200089
-0,166403
-0,201429
-0,161193
-0,139783
-0,246286
-0,238259
-0,180191
-0,127079
-0,180145
-0,201016
-0,229094
-0,084154
-0,236040
-0,212689
-0,150406
-0,197093
-0,086763
-0,100716
-0,123713
-0,030149
-0,115287
-0,263899
-0,157928
-0,197251
-0,209758
-0,243256
-0,239984
-0,169197
-0,253775
-0,184908
-0,110114
-0,133364
-0,177966
-0,151068
-0,208137
-0,222882
-0,118255
-0,047168
-0,075214
-0,102697
-0,052550
-0,132933
-0,073282
-0,159716
-0,182692
-0,124458
-0,154829
-0,164719
-0,174644
-0,205786
-0,230410
-0,067230
-0,110100
-0,145264
-0,117658
0,053359
-0,104681
-0,050953
-0,030096
-0,078493
-0,109791
-0,116831
-0,032802
-0,084760
-0,131012
-0,041066
-0,135238
-0,134054
-0,002703
-0,038648
-0,074527
-0,079527
0,019051
-0,049852
-0,030943
0,005965
0,056258
-0,027429
-0,006289
-0,009964
-0,001368
-0,071707
0,052456
-0,114366
0,020798
-0,038293
-0,043011
-0,036845
-0,052705
-0,074202
0,015926
-0,110945
0,025545
-0,025144
0,091371
0,040252
0,073330
0,116916
-0,023995
0,032606
0,020539
0,025022
-0,008229
0,049281
-0,055030
0,083505
0,001425
0,016785
0,034957
-0,017430
-0,033718
0,088366
0,063208
0,072284
-0,001484
0,101549
0,060867
0,034395
0,120407
0,065441
0,126563
0,146590
0,079438
0,048136
-0,037855
0,025649
-0,021445
-0,034423
0,018439
-0,042117
0,021772
-0,067005
0,026283
0,117077
0,104892
0,049348
0,141105
0,156694
0,099360
-0,047333
0,071290
0,055203
-0,001412
0,044120
0,019834
0,025175
-0,009070
-0,076786
0,047534
0,009854
0,055440
-0,031044
-0,026389
-0,000689
0,053274
0,024693
0,131195
0,025772
0,049777
0,040104
-0,008249
-0,087049
-0,018393
0,112525
-0,018333
-0,113987
-0,101925
-0,046042
-0,059187
-0,064409
-0,087784
0,012523
-0,112150
0,013071
0,021921
0,060580
-0,053355
0,003591
0,019368
-0,100475
-0,037864
-0,051740
-0,105407
-0,099725
-0,063267
-0,083852
-0,173001
-0,148185
-0,089517
-0,111367
-0,041915
-0,123224
-0,074927
-0,065605
-0,071255
-0,004446
-0,039886
-0,051158
0,001302
-0,188812
-0,013099
-0,072870
-0,124560
-0,044097
-0,195036
-0,097255
-0,193780
-0,192682
-0,111778
-0,128711
-0,089699
-0,214068
-0,097938
-0,074838
-0,056653
-0,127089
-0,127905
-0,101047
-0,112278
-0,211911
-0,184379
-0,177390
-0,135496
-0,187614
-0,179456
-0,206381
-0,257988
-0,305651
-0,257070
-0,281956
-0,176843
-0,230470
-0,212594
-0,162944
-0,141116
-0,163485
-0,059880
-0,021573
-0,040931
-0,238461
-0,168608
-0,174477
-0,276403
-0,166392
-0,226847
-0,175510
-0,295824
-0,184506
-0,235239
-0,283050
-0,233393
-0,187547
-0,241023
-0,076183
-0,180661
-0,193972
-0,145131
-0,153797
-0,189903
-0,150363
-0,222007
-0,208899
-0,180956
-0,265782
-0,254814
-0,220630
-0,271018
-0,342755
-0,237180
-0,289392
-0,260854
-0,275917
-0,246811
-0,283232
-0,165039
-0,084177
-0,218199
-0,230412
-0,161402
-0,181694
-0,183337
-0,266575
-0,157082
-0,204714
-0,301309
-0,246435
-0,283211
-0,243452
-0,354997
-0,299610
-0,345129
-0,334019
-0,306552
-0,196077
-0,176026
-0,247798
-0,165769
-0,157953
-0,171492
-0,300181
-0,259919
-0,210189
-0,292460
-0,354504
-0,203647
-0,269496
-0,303051
-0,305230
-0,204065
-0,332396
-0,318416
-0,240799
-0,217934
-0,188722
-0,232080
-0,150914
-0,130526
-0,134957
-0,219072
-0,279217
-0,258206
-0,180839
-0,275610
-0,245936
-0,314520
-0,198764
-0,226072
-0,291734
-0,320744
-0,246499
-0,388459
-0,385757
-0,245049
-0,222231
-0,281621
-0,164278
-0,124753
-0,156338
-0,142989
-0,089095
-0,210056
-0,136461
-0,248091
-0,216446
-0,259498
-0,278912
-0,270989
-0,370468
-0,301333
-0,294742
-0,367801
-0,297414
-0,269705
-0,277567
-0,334018
-0,273327
-0,131028
-0,126339
-0,194756
-0,217803
-0,233548
-0,296846
-0,214196
-0,271991
-0,352951
-0,270896
-0,342459
-0,322842
-0,228942
-0,231211
-0,232685
-0,252008
-0,271486
-0,279851
-0,214591
-0,203379
-0,283413
-0,233343
-0,212629
-0,241420
-0,221386
-0,262282
-0,289618
-0,217258
-0,267279
-0,255075
-0,294381
-0,328765
-0,409816
-0,250948
-0,230978
-0,303292
-0,175824
-0,223697
-0,285169
-0,187248
-0,304733
-0,241514
-0,105510
-0,172219
-0,196872
-0,254187
-0,260198
-0,167984
-0,292799
-0,293986
-0,243323
-0,426090
-0,412294
-0,307748
-0,323905
-0,287647
-0,211910
-0,193814
-0,104301
-0,245813
-0,153692
-0,257563
-0,203452
-0,290111
-0,190758
-0,219058
-0,421514
-0,364243
-0,264495
-0,188667
-0,268299
-0,350150
-0,324393
-0,141535
-0,222324
-0,331347
-0,297045
-0,269758
-0,209147
-0,224740
-0,221178
-0,317803
-0,161964
-0,184039
-0,170036
-0,239604
-0,218412
-0,280382
-0,347378
-0,323103
-0,329971
-0,312583
-0,336183
-0,319503
-0,355387
-0,272824
-0,289540
-0,230664
-0,244722
-0,188954
-0,266450
-0,124774
-0,255817
-0,227638
-0,230221
-0,241143
-0,266831
-0,228758
-0,324147
-0,293304
-0,286587
-0,230107
-0,325554
-0,236227
-0,285664
-0,287471
-0,251606
-0,271329
-0,211888
-0,222001
-0,154452
-0,137222
-0,235620
-0,275395
-0,284313
-0,256043
-0,285751
-0,257221
-0,332233
-0,260750
-0,286974
-0,290512
-0,295438
-0,311890
-0,309652
-0,332687
-0,284286
-0,253765
-0,208379
-0,195086
-0,223811
-0,301961
-0,156573
-0,209365
-0,169842
-0,207989
-0,242167
-0,270902
-0,274774
-0,310170
-0,397009
-0,319996
-0,344797
-0,292134
-0,194081
-0,346188
-0,307633
-0,198392
-0,175028
-0,137645
-0,137554
-0,127688
-0,165481
-0,241475
-0,320725
-0,169322
-0,262479
-0,283663
-0,346707
-0,376044
-0,347998
-0,333976
-0,268827
-0,261398
-0,230099
-0,329550
-0,287518
-0,301391
-0,213200
-0,113192
-0,243508
-0,173488
-0,191098
-0,130874
-0,280933
-0,264803
-0,316571
-0,249035
-0,342303
-0,237916
-0,274042
-0,413358
-0,266724
-0,253703
-0,334114
-0,240782
-0,258127
-0,174679
-0,233712
-0,229111
-0,210563
-0,281883
-0,257228
-0,251028
-0,353498
-0,193072
-0,296165
-0,287031
-0,273214
-0,289230
-0,280946
-0,373346
-0,313854
-0,306185
-0,288748
-0,227806
-0,370934
-0,143988
-0,204974
-0,292960
-0,116757
-0,166273
-0,222328
-0,215924
-0,203462
-0,318652
-0,322038
-0,274401
-0,229842
-0,241087
-0,290772
-0,271700
-0,289744
-0,185745
-0,360475
-0,257782
-0,196964
-0,281805
-0,299564
-0,209997
-0,188953
-0,253338
-0,193033
-0,173911
-0,253421
-0,314115
-0,248515
-0,335289
-0,351220
-0,359771
-0,262105
-0,227089
-0,289847
-0,396538
-0,357021
-0,198130
-0,325296
-0,286369
-0,220816
-0,223641
-0,283269
-0,216324
-0,097995
-0,271364
-0,353016
-0,124312
-0,238657
-0,252237
-0,243368
-0,319195
-0,217307
-0,256182
-0,266372
-0,254516
-0,285378
-0,238361
-0,179973
-0,169950
-0,299812
-0,242021
-0,239941
-0,218902
-0,224073
-0,212598
-0,254398
-0,229594
-0,304611
-0,267400
-0,255497
-0,306393
-0,365712
-0,341982
-0,266312
-0,205406
-0,271572
-0,174885
-0,241020
-0,191505
-0,250223
-0,248238
-0,195701
-0,119623
-0,233378
-0,273092
-0,178676
-0,251528
-0,201960
-0,235278
-0,328806
-0,245557
-0,211145
-0,268292
-0,351597
-0,304239
-0,184028
-0,272619
-0,194777
-0,110918
-0,201799
-0,135348
-0,240951
-0,163263
-0,105626
-0,195445
-0,264104
-0,193765
-0,200724
-0,240559
-0,347222
-0,115232
-0,225663
-0,236815
-0,162821
-0,314523
-0,161099
-0,209980
-0,192979
-0,017831
-0,145392
-0,108995
-0,044765
-0,227120
-0,173186
-0,055051
-0,138398
-0,175078
-0,164377
-0,198190
-0,187049
-0,159958
-0,300152
-0,257615
-0,243330
-0,181659
-0,298844
-0,170823
-0,138332
-0,177369
-0,064945
-0,164793
-0,220529
-0,120275
-0,156188
-0,167293
-0,123121
-0,207589
-0,127870
-0,160467
-0,206238
-0,251787
-0,306853
-0,302902
-0,247693
-0,226665
-0,223192
-0,166744
-0,228368
-0,182816
-0,119034
-0,091354
-0,115849
-0,172400
-0,094664
-0,179254
-0,125242
-0,187452
-0,213719
-0,181067
-0,190119
-0,310886
-0,199191
-0,276588
-0,202047
-0,218502
-0,324329
-0,320800
-0,209182
-0,239664
-0,226236
-0,225782
-0,207386
-0,110292
-0,178302
-0,156274
-0,241506
-0,239333
-0,179194
-0,265418
-0,225074
-0,354431
-0,246583
-0,348538
-0,275121
-0,294648
-0,242118
-0,235151
-0,375846
-0,218021
-0,327937
-0,217806
-0,185244
-0,248876
-0,256521
-0,206799
-0,260380
-0,351302
-0,242582
-0,369836
-0,369512
-0,318347
-0,294492
-0,350668
-0,270512
-0,295489
-0,287994
-0,411795
-0,219384
-0,210747
-0,242980
-0,198082
-0,182305
-0,225187
-0,326072
-0,217069
-0,219453
-0,272310
-0,180687
-0,290082
-0,299529
-0,325836
-0,298778
-0,302863
-0,332110
-0,378814
-0,290953
-0,221876
-0,271430
-0,358649
-0,215347
-0,267134
-0,296032
-0,325013
-0,267759
-0,123985
-0,343868
-0,382789
-0,350470
-0,260584
-0,354296
-0,463855
-0,329295
-0,375322
-0,287122
-0,270455
-0,263647
-0,285468
-0,172948
-0,248363
-0,250752
-0,145370
-0,134867
-0,189162
-0,096730
-0,127803
-0,099037
0,005431
0,043108
0,040329
0,159199
0,183354
0,279970
0,290784
0,426459
0,525564
0,514568
0,639141
0,681618
0,870312
0,986871
1,036038
0,994610
1,072758
1,034847
1,072276
1,080091
1,048737
1,099824
1,058437
0,981385
0,915234
0,823017
0,793773
0,649581
0,703595
0,611295
0,478504
0,523585
0,421488
0,336245
0,221009
0,158438
0,202054
0,110653
0,058037
-0,034423
-0,114230
-0,154141
-0,251883
-0,255210
-0,296242
-0,312468
-0,413253
-0,368358
-0,440468
-0,385364
-0,395612
-0,359078
-0,325381
-0,367266
-0,250312
-0,415591
-0,265071
-0,242178
-0,307666
-0,321426
-0,356380
-0,360910
-0,291240
-0,304222
-0,319686
-0,346275
-0,306852
-0,341317
-0,380582
-0,322658
-0,365424
-0,275849
-0,270211
-0,212058
-0,312227
-0,237763
-0,228109
-0,307121
-0,261167
-0,263794
-0,235173
-0,283602
-0,310216
-0,318898
-0,300088
-0,348378
-0,365392
-0,484262
-0,384634
-0,318819
-0,405860
-0,264978
-0,286469
-0,232018
-0,226228
-0,344809
-0,271436
-0,249222
-0,334525
-0,362984
-0,263670
-0,399050
-0,331512
-0,374162
-0,421712
-0,381975
-0,414570
-0,404793
-0,398457
-0,402154
-0,286489
-0,346116
-0,143081
-0,397640
-0,264419
-0,320719
-0,257246
-0,313239
-0,270752
-0,132241
-0,295747
-0,323889
-0,324300
-0,390210
-0,420023
-0,336417
-0,415713
-0,401560
-0,313417
-0,393497
-0,348015
-0,357499
-0,237335
-0,246935
-0,190747
-0,200085
-0,272156
-0,279642
-0,282978
-0,281342
-0,310378
-0,265888
-0,345645
-0,388689
-0,391873
-0,381462
-0,347562
-0,366292
-0,304088
-0,415783
-0,303252
-0,381306
-0,410848
-0,298637
-0,228593
-0,198960
-0,230123
-0,290410
-0,306937
-0,278189
-0,314927
-0,240019
-0,368565
-0,398765
-0,375944
-0,390080
-0,360910
-0,267963
-0,331237
-0,278767
-0,232965
-0,278574
-0,330357
-0,190727
-0,260342
-0,185181
-0,367730
-0,194334
-0,302707
-0,228283
-0,347193
-0,269168
-0,294044
-0,285511
-0,317745
-0,246254
-0,313759
-0,385923
-0,375922
-0,279060
-0,290840
-0,245925
-0,210458
-0,240830
-0,168606
-0,199118
-0,247933
-0,162446
-0,276220
-0,154869
-0,170990
-0,241905
-0,209486
-0,260843
-0,302252
-0,219547
-0,248014
-0,207620
-0,269954
-0,266072
-0,337408
-0,148105
-0,172363
-0,151270
-0,211552
-0,173581
-0,123515
-0,110975
-0,212893
-0,253590
-0,191752
-0,273222
-0,265895
-0,174542
-0,274074
-0,175040
-0,183782
-0,267282
-0,131111
-0,132139
-0,107812
-0,158875
-0,181530
-0,154567
-0,195083
-0,098154
-0,062856
-0,069226
-0,138261
-0,172448
-0,174396
-0,218346
-0,125925
-0,177305
-0,193554
-0,232045
-0,248758
-0,113034
-0,180237
-0,041646
-0,158532
-0,136541
-0,038214
-0,081279
-0,106370
-0,022277
-0,174989
-0,003939
-0,075245
-0,045599
-0,117554
-0,162596
-0,136671
-0,210086
-0,049225
-0,191087
-0,151670
-0,131225
-0,089931
-0,076403
-0,145794
-0,076488
-0,015488
-0,014976
-0,038925
-0,052905
-0,068381
-0,020812
0,057695
0,013925
-0,105345
-0,075784
-0,134174
-0,120131
-0,117255
-0,070175
-0,088383
-0,071769
-0,089331
-0,038213
-0,044162
-0,094836
-0,083881
-0,085785
0,036822
0,049263
0,063604
0,042690
-0,098621
0,034715
0,003415
0,063872
-0,105572
-0,064187
-0,103154
-0,242499
-0,159647
-0,149803
-0,045350
-0,124810
-0,081476
-0,114394
-0,103051
-0,128180
-0,092942
0,021940
-0,052170
-0,060140
-0,182644
-0,101220
-0,085282
-0,039785
-0,110213
-0,089383
-0,065683
-0,205598
-0,129341
-0,128701
-0,037015
-0,135029
-0,097028
-0,215890
-0,116623
-0,057258
-0,038925
-0,066412
-0,089538
-0,059915
-0,072766
-0,123107
-0,042218
-0,173609
-0,170759
-0,196157
-0,179439
-0,163124
-0,148805
-0,231265
-0,073823
-0,210861
-0,211680
-0,243633
-0,158052
-0,100026
-0,137161
-0,152069
-0,150647
-0,075552
-0,149309
-0,182387
-0,123205
-0,177170
-0,242618
-0,271310
-0,250080
-0,220899
-0,304486
-0,218724
-0,196068
-0,214796
-0,194812
-0,164317
-0,222387
-0,138663
-0,178052
-0,208416
-0,260411
-0,193152
-0,194657
-0,302338
-0,189205
-0,253396
-0,289013
-0,320228
-0,261451
-0,385375
-0,370324
-0,346750
-0,245048
-0,296495
-0,193998
-0,319051
-0,410040
-0,224931
-0,262774
-0,280952
-0,192072
-0,194866
-0,291627
-0,268197
-0,255578
-0,373307
-0,322285
-0,358055
-0,318307
-0,412388
-0,374047
-0,392735
-0,368174
-0,374637
-0,347825
-0,310144
-0,311938
-0,292114
-0,255863
-0,271973
-0,343088
-0,167418
-0,324427
-0,278353
-0,301016
-0,429088
-0,308313
-0,360702
-0,391571
-0,427696
-0,291228
-0,408851
-0,419321
-0,359952
-0,319277
-0,374291
-0,304909
-0,366510
-0,262146
-0,367652
-0,315613
-0,227248
-0,287276
-0,329344
-0,240966
-0,359997
-0,369443
-0,281897
-0,319153
-0,500725
-0,380677
-0,271252
-0,361029
-0,388069
-0,294166
-0,220468
-0,353888
-0,297361
-0,203252
-0,214373
-0,267925
-0,281924
-0,381899
-0,313233
-0,263013
-0,339473
-0,331053
-0,400357
-0,399309
-0,442321
-0,405748
-0,397948
-0,323153
-0,372791
-0,335355
-0,318109
-0,375690
-0,343209
-0,279366
-0,248445
-0,220710
-0,141201
-0,208162
-0,328736
-0,368117
-0,314259
-0,222152
-0,273375
-0,355940
-0,351045
-0,304935
-0,364048
-0,330003
-0,336864
-0,327778
-0,267839
-0,240310
-0,337104
-0,297418
-0,245794
-0,270795
-0,309372
-0,358301
-0,283767
-0,394060
-0,288873
-0,416962
-0,365446
-0,324715
-0,396449
-0,342657
-0,305462
-0,444232
-0,379717
-0,280387
-0,299633
-0,239949
-0,349515
-0,229478
-0,236682
-0,336347
-0,238336
-0,339975
-0,279616
-0,305740
-0,295804
-0,323857
-0,326445
-0,416255
-0,449642
-0,436176
-0,426587
-0,400260
-0,258123
-0,340493
-0,303276
-0,298366
-0,345609
-0,274740
-0,244365
-0,306770
-0,219590
-0,262927
-0,301077
-0,334906
-0,370194
-0,237589
-0,384040
-0,379535
-0,415521
-0,348633
-0,279022
-0,380290
-0,426108
-0,355868
-0,260399
-0,291015
-0,311698
-0,243619
-0,304868
-0,185557
-0,338243
-0,210907
-0,295833
-0,293418
-0,297021
-0,342258
-0,278626
-0,283460
-0,377075
-0,308747
-0,355004
-0,408358
-0,303862
-0,293673
-0,220097
-0,256154
-0,224247
-0,326842
-0,277672
-0,237769
-0,331237
-0,284078
-0,297379
-0,335017
-0,329452
-0,345893
-0,280383
-0,315954
-0,384220
-0,339532
-0,250626
-0,297684
-0,349465
-0,314557
-0,312273
-0,309007
-0,232898
-0,341364
-0,309941
-0,255639
-0,299391
-0,277377
-0,309026
-0,311101
-0,299790
-0,307979
-0,194209
-0,383015
-0,408271
-0,356367
-0,293923
-0,277270
-0,318364
-0,288103
-0,308720
-0,321275
-0,323850
-0,219159
-0,231893
-0,252082
-0,180708
-0,332834
-0,307361
-0,341798
-0,312894
-0,272487
-0,390689
-0,337392
-0,350157
-0,311546
-0,307722
-0,428380
-0,451582
-0,325167
-0,327219
-0,322516
-0,255094
-0,264995
-0,190259
-0,355844
-0,165887
-0,325142
-0,250038
-0,291425
-0,332022
-0,281404
-0,349907
-0,351697
-0,373341
-0,409960
-0,399794
-0,309568
-0,330662
-0,304985
-0,323953
-0,226058
-0,292944
-0,263775
-0,239007
-0,233374
-0,283337
-0,296603
-0,284476
-0,333070
-0,326379
-0,247531
-0,322047
-0,336433
-0,393341
-0,371823
-0,319060
-0,296883
-0,314173
-0,328842
-0,249652
-0,289101
-0,221497
-0,249655
-0,230752
-0,148472
-0,157678
-0,238177
-0,275377
-0,303831
-0,326008
-0,342000
-0,330953
-0,458703
-0,335507
-0,240356
-0,295767
-0,264874
-0,342216
-0,284537
-0,338724
-0,236332
-0,348251
-0,291552
-0,207498
-0,216944
-0,305896
-0,157537
-0,229964
-0,333343
-0,197447
-0,285854
-0,382831
-0,281540
-0,309597
-0,305128
-0,396680
-0,304497
-0,311927
-0,325619
-0,343591
-0,243159
-0,209230
-0,299729
-0,289682
-0,226860
-0,254346
-0,292107
-0,266958
-0,276627
-0,335861
-0,286482
-0,242803
-0,387119
-0,303136
-0,333050
-0,435249
-0,345535
-0,339147
-0,374056
-0,355432
-0,292557
-0,244230
-0,223124
-0,284476
-0,279717
-0,284980
-0,292640
-0,264236
-0,275385
-0,226669
-0,386912
-0,293678
-0,228877
-0,320324
-0,424043
-0,363097
-0,344378
-0,309633
-0,351656
-0,292612
-0,271381
-0,288414
-0,248261
-0,242658
-0,250878
-0,240926
-0,315255
-0,251648
-0,348623
-0,267989
-0,264649
-0,286754
-0,248224
-0,422376
-0,319226
-0,280764
-0,333341
-0,308643
-0,363950
-0,376327
-0,247904
-0,230071
-0,228584
-0,301117
-0,163464
-0,325340
-0,270060
-0,312113
-0,327085
-0,292863
-0,368740
-0,245474
-0,365030
-0,335597
-0,342351
-0,324523
-0,290155
-0,363696
-0,283446
-0,285969
-0,277453
-0,210595
-0,259169
-0,284843
-0,288743
-0,194850
-0,231224
-0,236657
-0,278921
-0,299655
-0,356077
-0,322451
-0,269525
-0,319549
-0,300404
-0,398165
-0,248346
-0,288075
-0,239810
-0,303216
-0,265370
-0,244654
-0,280647
-0,301654
-0,280952
-0,284281
-0,173385
-0,218155
-0,251789
-0,246311
-0,280303
-0,308760
-0,317511
-0,365313
-0,286040
-0,252007
-0,307886
-0,265894
-0,313824
-0,208993
-0,291434
-0,223321
-0,129164
-0,126009
-0,181270
-0,127861
-0,135100
-0,232119
-0,269073
-0,196016
-0,270794
-0,189401
-0,215292
-0,244436
-0,262839
-0,307617
-0,201907
-0,239329
-0,260543
-0,263734
-0,072320
-0,089956
-0,038853
-0,111353
-0,027808
-0,155967
-0,117479
-0,151168
-0,137592
-0,286451
-0,170375
-0,160804
-0,165418
-0,259319
-0,210456
-0,205398
-0,230518
-0,244040
-0,238125
-0,212343
-0,265661
-0,191803
-0,137964
-0,205484
-0,161785
-0,088658
-0,107706
-0,220286
-0,194060
-0,251578
-0,194873
-0,334336
-0,262175
-0,312474
-0,250791
-0,220453
-0,247568
-0,269157
-0,237387
-0,218370
-0,166122
-0,176913
-0,098665
-0,207977
-0,175640
-0,209805
-0,141867
-0,160396
-0,304373
-0,252679
-0,251728
-0,174911
-0,236436
-0,265514
-0,323288
-0,256761
-0,294395
-0,211797
-0,236004
-0,230102
-0,260781
-0,211926
-0,213734
-0,130877
-0,146140
-0,189496
-0,231267
-0,263845
-0,314371
-0,260014
-0,225820
-0,392127
-0,328517
-0,229126
-0,285621
-0,216101
-0,361566
-0,165809
-0,300067
-0,262518
-0,298635
-0,286351
-0,299168
-0,225062
-0,252732
-0,200278
-0,256727
-0,322574
-0,207582
-0,182721
-0,325020
-0,387148
-0,329319
-0,341917
-0,289995
-0,309933
-0,340750
-0,358338
-0,263824
-0,216065
-0,231879
-0,245809
-0,204803
-0,235604
-0,191530
-0,214880
-0,255897
-0,248384
-0,354111
-0,285662
-0,194133
-0,297056
-0,291923
-0,408832
-0,294137
-0,379422
-0,364407
-0,458011
-0,358584
-0,269095
-0,293960
-0,230872
-0,348937
-0,190183
-0,258673
-0,209188
-0,191891
-0,201357
-0,265704
-0,197570
-0,370207
-0,383708
-0,355959
-0,327959
-0,361485
-0,236751
-0,296182
-0,308523
-0,193787
-0,153251
-0,192162
-0,049855
-0,125934
0,005405
-0,090256
0,114838
0,256546
0,281372
0,245507
0,275801
0,281890
0,435237
0,480537
0,511764
0,555768
0,698694
0,785719
0,823694
0,790191
0,955823
0,856857
0,951327
1,100471
1,129420
1,046801
1,114466
1,034157
0,980734
0,981212
0,908106
0,850081
0,818303
0,719134
0,553016
0,511084
0,504442
0,412115
0,306995
0,236353
0,173659
0,164841
0,137284
0,096936
0,040289
-0,006156
-0,033138
-0,139140
-0,169574
-0,256854
-0,232330
-0,381073
-0,314299
-0,340218
-0,492847
-0,461789
-0,383908
-0,427983
-0,438883
-0,346678
-0,345360
-0,390179
-0,279168
-0,301889
-0,311686
-0,351636
-0,270460
-0,228127
-0,335092
-0,382386
-0,334767
-0,350755
-0,347118
-0,293717
-0,397227
-0,306600
-0,394971
-0,305866
-0,304097
-0,304545
-0,319554
-0,174118
-0,252007
-0,211656
-0,274415
-0,221796
-0,252242
-0,275821
-0,220815
-0,260424
-0,279402
-0,246644
-0,406485
-0,340660
-0,441423
-0,361346
-0,292095
-0,259122
-0,342162
-0,321683
-0,286458
-0,238921
-0,283747
-0,297493
-0,239057
-0,211228
-0,200896
-0,282614
-0,365294
-0,160360
-0,236170
-0,404534
-0,306421
-0,315043
-0,271647
-0,262369
-0,352994
-0,216046
-0,319171
-0,213800
-0,260256
-0,388012
-0,206689
-0,201308
-0,250460
-0,239475
-0,278261
-0,273599
-0,263194
-0,316597
-0,295338
-0,292638
-0,370414
-0,306157
-0,217458
-0,357634
-0,269804
-0,338946
-0,248537
-0,293497
-0,252438
-0,316699
-0,309698
-0,243772
-0,219940
-0,122195
-0,211456
-0,218705
-0,284082
-0,235411
-0,273798
-0,263590
-0,318885
-0,314402
-0,289269
-0,367517
-0,250733
-0,356613
-0,245759
-0,289499
-0,291051
-0,240763
-0,151252
-0,269798
-0,237139
-0,178920
-0,266447
-0,230434
-0,205676
-0,240666
-0,235105
-0,267894
-0,282397
-0,154070
-0,317672
-0,262667
-0,232496
-0,305668
-0,216040
-0,295106
-0,285187
-0,274278
-0,218934
-0,267964
-0,307058
-0,207256
-0,218358
-0,203364
-0,238303
-0,248851
-0,246633
-0,293244
-0,222150
-0,319220
-0,202217
-0,229389
-0,202662
-0,293668
-0,191919
-0,232294
-0,317640
-0,102829
-0,186709
-0,156789
-0,195072
-0,090326
-0,166473
-0,118615
-0,174620
-0,207997
-0,202697
-0,282999
-0,251915
-0,223961
-0,232131
-0,275162
-0,215682
-0,270501
-0,168544
-0,247216
-0,130926
-0,167316
-0,230205
-0,128891
-0,113952
-0,194686
-0,139598
0,014701
-0,117488
-0,158769
-0,172904
-0,198371
-0,175138
-0,139132
-0,187947
-0,277461
-0,158004
-0,153700
-0,218623
-0,107502
-0,149584
-0,055507
-0,055672
-0,024768
-0,008458
-0,015876
-0,054013
-0,073959
-0,064349
-0,105241
-0,110488
-0,101096
-0,125895
-0,098115
-0,124284
-0,162612
-0,088895
-0,135258
-0,131958
-0,093151
-0,023402
-0,062543
-0,028121
-0,048123
0,031164
-0,012319
-0,010988
-0,040426
0,037587
-0,014765
-0,093403
-0,029295
-0,007493
0,000502
-0,197970
-0,062484
-0,027725
-0,041699
-0,118842
-0,026412
-0,056605
-0,021510
0,127839
0,031013
0,103753
-0,011827
0,081419
0,019201
0,015617
0,011679
0,022851
-0,016046
-0,033158
-0,022482
-0,035736
-0,126632
-0,133403
-0,075698
0,016007
0,022688
-0,003553
0,043637
0,078170
0,001846
0,023274
-0,029395
-0,001577
0,066944
-0,023482
0,017616
-0,015426
-0,018750
-0,063483
-0,087466
-0,098201
-0,062670
-0,056834
0,070404
-0,057493
-0,017341
0,028785
-0,123207
0,030015
0,002190
0,020159
0,029772
0,012784
-0,157277
0,050691
-0,136996
-0,042669
-0,117006
-0,023935
-0,121960
-0,088465
-0,075048
-0,137654
-0,146963
-0,145579
-0,115804
-0,036721
0,056817
-0,030052
0,007314
-0,056106
-0,091041
-0,079359
-0,143414
-0,073518
-0,108285
-0,137424
-0,178492
-0,174124
-0,089761
-0,202892
-0,170574
-0,186711
-0,206466
-0,106946
-0,098510
-0,135868
-0,098484
-0,173539
-0,145893
-0,141673
-0,136592
-0,075629
-0,042149
-0,079230
-0,144828
-0,214336
-0,195543
-0,123401
-0,192446
-0,236630
-0,200939
-0,208701
-0,237086
-0,133608
-0,220643
-0,192118
-0,205643
-0,130045
-0,134116
-0,165778
-0,203898
-0,096291
-0,162537
-0,149731
-0,101316
-0,185580
-0,255290
-0,313766
-0,177489
-0,243457
-0,262377
-0,351957
-0,317463
-0,199800
-0,171865
-0,136218
-0,314099
-0,336748
-0,120797
-0,195355
-0,085898
-0,214557
-0,119599
-0,177109
-0,197780
-0,225124
-0,268620
-0,371965
-0,327998
-0,216756
-0,393906
-0,237947
-0,282223
-0,231385
-0,212886
-0,163009
-0,161722
-0,202321
-0,232751
-0,229663
-0,176746
-0,112495
-0,140203
-0,235495
-0,170722
-0,280264
-0,282954
-0,166490
-0,423493
-0,286421
-0,236649
-0,270468
-0,279711
-0,245060
-0,236982
-0,205529
-0,167558
-0,193372
-0,247014
-0,146746
-0,236374
-0,148997
-0,242386
-0,183028
-0,268654
-0,271533
-0,315992
-0,317623
-0,330119
-0,228407
-0,293571
-0,349214
-0,294675
-0,255190
-0,298548
-0,205571
-0,217134
-0,227226
-0,216564
-0,137781
-0,201740
-0,117688
-0,145759
-0,187754
-0,218877
-0,180317
-0,264661
-0,211980
-0,301233
-0,275621
-0,264093
-0,304583
-0,270603
-0,232918
-0,279504
-0,178116
-0,157236
-0,227023
-0,175260
-0,254215
-0,156721
-0,276906
-0,193905
-0,248651
-0,128468
-0,195842
-0,300572
-0,294371
-0,228362
-0,286263
-0,223109
-0,215410
-0,269360
-0,180379
-0,145344
-0,291085
-0,252713
-0,220627
-0,259040
-0,253165
-0,215518
-0,156301
-0,189912
-0,230413
-0,238002
-0,246319
-0,284143
-0,347869
-0,343058
-0,261122
-0,349632
-0,214349
-0,269071
-0,201623
-0,201607
-0,255666
-0,196119
-0,223765
-0,285123
-0,121160
-0,212174
-0,201471
-0,159156
-0,274470
-0,199688
-0,238910
-0,329300
-0,203384
-0,279258
-0,288462
-0,228052
-0,258550
-0,264793
-0,201262
-0,252533
-0,275824
-0,252420
-0,135486
-0,215608
-0,124030
-0,125454
-0,211542
-0,062608
-0,196613
-0,187256
-0,337219
-0,280369
-0,241740
-0,340104
-0,361261
-0,283865
-0,337930
-0,151790
-0,219269
-0,201747
-0,224310
-0,268588
-0,234917
-0,130829
-0,120174
-0,195535
-0,086154
-0,211664
-0,233263
-0,263617
-0,170084
-0,297731
-0,252904
-0,325395
-0,287508
-0,277318
-0,320397
-0,241369
-0,124640
-0,223596
-0,157997
-0,172758
-0,134387
-0,200944
-0,174654
-0,153738
-0,126754
-0,202023
-0,224359
-0,176278
-0,219332
-0,233716
-0,234591
-0,319729
-0,169052
-0,298104
-0,220176
-0,291172
-0,143034
-0,245687
-0,234326
-0,182671
-0,168306
-0,194911
-0,117897
-0,205765
-0,234821
-0,175740
-0,142589
-0,153650
-0,242395
-0,210463
-0,276064
-0,275647
-0,370295
-0,343098
-0,250924
-0,179930
-0,204533
-0,328494
-0,308555
-0,119666
-0,166539
-0,184541
-0,080035
-0,169477
-0,196794
-0,187871
-0,205409
-0,206070
-0,156953
-0,238818
-0,228003
-0,234276
-0,200294
-0,237943
-0,337922
-0,118377
-0,283321
-0,145351
-0,146015
-0,110935
-0,263253
-0,147116
-0,149561
-0,269933
-0,137130
-0,210160
-0,176696
-0,177658
-0,203590
-0,191534
-0,119723
-0,320712
-0,273477
-0,330126
-0,261686
-0,225020
-0,166488
-0,192316
-0,271558
-0,166667
-0,107667
-0,104339
-0,089847
-0,173662
-0,191379
-0,247206
-0,191762
-0,169303
-0,198978
-0,285575
-0,259182
-0,189907
-0,217466
-0,272492
-0,292088
-0,276388
-0,215578
-0,156065
-0,131172
-0,239614
-0,187038
-0,254666
-0,124647
-0,058485
-0,178360
-0,158711
-0,099167
-0,205286
-0,147049
-0,248318
-0,228408
-0,186069
-0,217090
-0,258592
-0,278423
-0,128461
-0,178368
-0,179279
-0,132989
-0,240608
-0,268202
-0,190083
-0,147191
-0,083191
-0,194940
-0,166643
-0,163238
-0,194023
-0,193745
-0,254848
-0,280690
-0,232120
-0,211716
-0,240994
-0,311064
-0,351378
-0,218846
-0,206828
-0,253271
-0,206715
-0,152222
-0,196093
-0,067775
-0,037581
-0,189700
-0,114680
-0,252058
-0,146116
-0,268160
-0,114251
-0,194735
-0,215670
-0,231745
-0,280696
-0,258804
-0,268004
-0,097912
-0,199697
-0,204069
-0,325420
-0,155102
-0,145550
-0,013379
-0,121533
-0,131935
-0,179455
-0,156739
-0,174761
-0,201825
-0,161477
-0,278016
-0,189422
-0,248168
-0,314826
-0,234313
-0,293432
-0,307023
-0,090594
-0,347056
-0,164496
-0,173955
-0,191800
-0,216919
-0,122692
-0,183028
-0,201583
-0,106530
-0,147840
-0,204827
-0,226603
-0,250863
-0,356210
-0,309681
-0,309614
-0,245514
-0,176715
-0,224089
-0,250907
-0,282773
-0,187403
-0,161235
-0,180119
-0,143124
-0,065170
-0,148901
-0,167601
-0,163515
-0,146094
-0,128017
-0,160950
-0,271606
-0,218627
-0,253254
-0,203232
-0,273705
-0,205452
-0,297790
-0,199782
-0,117411
-0,121443
-0,196645
-0,065581
-0,148856
-0,075565
-0,053279
-0,108039
-0,159359
-0,145666
-0,122220
-0,144333
-0,164608
-0,208514
-0,246981
-0,149414
-0,203094
-0,147021
-0,159329
-0,180611
-0,175865
-0,137290
-0,178139
-0,111449
-0,114068
-0,112646
-0,053258
-0,076646
-0,123283
-0,148796
-0,153165
-0,115758
-0,044140
-0,166842
-0,086622
-0,151342
-0,159420
-0,145076
-0,114571
-0,129349
-0,180978
-0,036413
0,000413
-0,110705
-0,066295
0,003211
-0,025604
-0,088715
-0,072126
-0,076356
-0,108908
-0,148776
-0,103019
-0,138434
-0,090374
-0,089646
-0,098001
-0,079682
-0,043304
-0,063932
-0,056269
-0,006278
-0,111132
0,047271
-0,050656
-0,071694
-0,081426
-0,076575
-0,055780
-0,072872
-0,169369
-0,132349
-0,175558
-0,186793
-0,128920
-0,082835
-0,081220
-0,191460
-0,074217
-0,062135
-0,132050
-0,146158
-0,032670
-0,042463
-0,061239
-0,052304
-0,120891
-0,046212
-0,061865
-0,078247
-0,055576
-0,116389
-0,101461
-0,183281
-0,137795
-0,148539
-0,214473
-0,110895
-0,157063
-0,159019
-0,121552
-0,188242
-0,077898
-0,179769
-0,035000
0,020803
-0,140144
-0,010693
-0,177031
-0,135465
-0,215481
-0,176295
-0,226811
-0,211048
-0,192784
-0,197307
-0,227455
-0,165621
-0,148752
-0,162484
-0,145432
-0,108642
-0,095740
-0,006179
-0,174303
-0,124371
-0,015976
-0,097322
-0,196178
-0,155606
-0,164821
-0,169500
-0,130178
-0,084681
-0,202898
-0,243740
-0,121763
-0,268471
-0,182831
-0,181820
-0,214486
-0,157723
-0,231647
-0,072126
-0,077697
-0,152988
-0,093890
-0,059612
-0,094407
-0,199528
-0,141760
-0,183801
-0,193627
-0,241299
-0,183597
-0,227540
-0,270646
-0,258606
-0,228593
-0,127806
-0,224483
-0,101450
-0,211788
-0,164191
-0,107830
-0,176582
-0,218528
-0,092893
-0,176229
-0,127473
-0,142335
-0,296826
-0,231229
-0,195739
-0,325605
-0,295149
-0,292881
-0,221621
-0,267155
-0,238585
-0,227774
-0,141679
-0,127505
-0,236697
-0,109128
-0,118428
-0,061090
-0,136055
-0,181337
-0,160346
-0,108951
-0,142886
-0,041262
-0,210873
-0,103731
-0,151870
-0,020742
0,017595
0,097353
0,081019
0,270238
0,335821
0,372138
0,351951
0,464430
0,457635
0,612956
0,663286
0,721926
0,815223
0,914806
0,925668
1,140248
1,016363
1,092308
1,018881
1,140410
1,220905
1,202325
1,111443
1,126361
1,165414
1,145297
1,125927
1,026055
1,075300
0,997727
0,909865
0,790539
0,656571
0,610429
0,456011
0,333632
0,342360
0,191460
0,177187
0,099234
0,084539
0,019235
-0,035824
-0,132639
-0,074503
-0,083273
-0,113503
-0,135082
-0,081097
-0,316259
-0,284269
-0,289444
-0,196082
-0,217774
-0,347854
-0,311933
-0,275746
-0,340136
-0,326302
-0,295184
-0,266045
-0,257694
-0,270440
-0,177572
-0,286546
-0,129208
-0,127363
-0,153605
-0,165990
-0,135066
-0,137040
-0,219005
-0,132987
-0,136082
-0,233000
-0,207886
-0,299999
-0,171595
-0,129777
-0,281863
-0,279879
-0,216319
-0,223776
-0,132132
-0,092191
-0,103703
-0,162496
-0,184569
-0,129432
-0,076631
-0,125562
-0,150483
-0,263325
-0,079190
-0,192153
-0,329593
-0,306108
-0,276696
-0,250758
-0,210360
-0,226147
-0,211782
-0,225322
-0,220193
-0,108969
-0,198476
-0,155239
-0,162428
-0,065636
-0,058238
-0,208394
-0,073018
-0,213372
-0,095043
-0,225939
-0,312476
-0,236967
-0,244688
-0,165029
-0,249566
-0,192335
-0,253846
-0,145368
-0,184455
-0,147459
-0,077668
-0,103862
-0,095235
-0,117077
-0,122108
-0,164742
-0,086245
-0,170805
-0,200040
-0,182786
-0,251558
-0,185238
-0,176202
-0,343697
-0,121358
-0,174417
-0,088803
-0,195097
-0,210405
-0,223625
-0,119610
-0,155114
-0,098714
-0,141267
-0,073957
-0,127558
-0,128349
-0,200294
-0,101417
-0,149029
-0,174851
-0,230769
-0,280049
-0,220123
-0,149408
-0,246285
-0,254192
-0,177524
-0,135185
-0,074746
-0,094341
-0,183450
-0,145469
-0,078638
-0,102269
-0,083061
-0,117744
-0,131574
-0,167867
-0,162010
-0,287859
-0,194731
-0,204921
-0,199729
-0,257380
-0,125091
-0,101677
-0,163723
-0,081082
-0,153175
-0,025087
-0,078549
-0,049089
0,003357
-0,082830
-0,038770
-0,042389
-0,089662
-0,134353
-0,201179
-0,174054
-0,107759
-0,231973
-0,190090
-0,214593
-0,294968
-0,202150
-0,071011
-0,097365
-0,008526
-0,083375
-0,029430
-0,121523
-0,057719
-0,043443
-0,041741
-0,028089
-0,014995
0,074044
-0,248499
-0,062874
-0,180517
-0,083005
-0,072454
-0,129942
-0,008397
-0,095494
-0,049276
0,077891
-0,019529
-0,007227
-0,050840
0,089848
-0,061733
-0,109592
0,010144
-0,002695
0,027983
-0,010022
-0,071393
-0,132241
-0,032741
-0,173895
-0,061761
-0,075314
-0,097113
-0,073886
-0,030457
-0,030002
-0,032735
0,088680
0,050500
-0,087120
0,070949
0,063949
0,047594
0,012308
0,070297
0,010336
0,107333
0,009769
0,012217
0,024255
-0,020486
-0,002993
0,035701
0,014657
0,035910
0,032484
0,022590
0,110741
0,080525
0,073129
0,131608
0,076198
0,118068
0,056708
0,043326
0,088458
0,052564
0,056366
-0,037163
0,041948
-0,009329
0,055723
0,074811
0,110954
0,057641
0,045862
0,146587
0,079258
0,096297
0,104086
0,105949
0,217154
0,151022
0,165553
0,150426
0,158653
-0,000637
0,010111
0,040005
0,189558
-0,007561
0,011552
0,146158
0,049921
-0,006533
0,106040
0,085985
0,134038
0,121011
0,101722
0,111722
0,138714
0,177388
0,109299
0,048983
0,121935
0,038031
0,142279
0,085529
-0,006388
0,042430
0,043332
-0,014357
0,065020
0,051870
0,060366
0,164734
0,015949
0,194987
0,144876
0,162739
0,176291
0,115048
0,128504
0,078162
0,004327
0,031229
0,023401
-0,079916
-0,022510
0,024254
-0,064942
0,019349
0,141593
0,016269
0,027262
-0,001301
0,009898
0,189984
0,066421
0,105909
0,089085
-0,000467
0,096659
-0,024129
-0,037407
-0,070377
-0,022356
-0,061398
-0,117746
-0,035689
-0,125942
-0,055265
0,001216
-0,053179
-0,033582
-0,093613
-0,050157
-0,071660
0,028070
-0,062136
-0,012780
0,003416
-0,048630
-0,041548
-0,178641
-0,051352
-0,184509
-0,173954
-0,076335
-0,060851
-0,058336
-0,147095
0,031547
-0,097402
-0,075177
-0,090577
-0,101789
-0,055319
-0,019111
0,017530
-0,113870
-0,017910
-0,102999
-0,068772
-0,118680
-0,183313
-0,092032
-0,133935
-0,099816
-0,190514
-0,091765
-0,180577
-0,089086
-0,191349
-0,160829
-0,129669
-0,102076
-0,086737
-0,071800
-0,025230
-0,066555
-0,027418
-0,110382
-0,135194
-0,151793
-0,152825
-0,134232
-0,161004
-0,240595
-0,187220
-0,089055
-0,142537
-0,186553
-0,150986
-0,209108
-0,122838
-0,053547
-0,133656
-0,124958
-0,112406
0,005274
-0,016645
-0,130548
-0,185655
-0,109304
-0,144398
-0,225790
-0,240182
-0,170601
-0,148799
-0,281145
-0,036425
-0,228514
-0,278882
-0,142288
-0,080440
-0,146572
-0,075432
-0,136047
-0,050091
-0,087768
-0,106683
-0,156809
-0,121304
-0,170326
-0,118313
-0,210176
-0,277243
-0,221138
-0,190698
-0,252471
-0,212720
-0,212571
-0,093099
-0,155142
-0,158357
-0,121197
-0,107534
-0,071372
-0,060848
-0,126875
-0,066015
-0,090333
-0,070190
-0,111694
-0,220442
-0,181901
-0,099876
-0,192553
-0,260870
-0,216870
-0,331913
-0,207515
-0,206804
-0,187959
-0,063154
-0,158315
-0,142186
-0,123404
-0,121559
-0,068504
-0,141427
-0,212879
-0,214860
-0,225737
-0,224015
-0,212207
-0,310389
-0,174364
-0,180689
-0,318337
-0,163689
-0,227076
-0,168672
-0,107348
-0,128003
-0,208214
-0,164890
-0,113193
-0,221323
-0,112544
-0,097674
-0,172893
-0,152009
-0,177971
-0,218355
-0,125892
-0,241788
-0,202645
-0,199061
-0,248263
-0,191175
-0,130579
-0,171075
-0,228347
-0,088566
-0,154427
-0,135708
-0,106254
-0,103185
-0,079095
-0,195534
-0,099598
-0,188575
-0,207918
-0,160519
-0,146847
-0,192094
-0,229847
-0,265321
-0,166050
-0,195277
-0,237798
-0,212179
-0,198618
-0,160397
-0,211264
-0,159492
-0,137463
-0,148466
-0,119873
-0,103760
-0,097336
-0,164617
-0,105977
-0,232709
-0,236404
-0,120750
-0,293855
-0,254513
-0,255467
-0,252305
-0,135730
-0,098243
-0,200244
-0,073186
-0,136683
-0,168486
-0,157083
-0,109225
-0,103463
-0,108018
-0,039851
-0,200958
-0,259695
-0,142193
-0,141581
-0,226451
-0,234179
-0,219764
-0,164574
-0,189463
-0,141229
-0,173603
-0,091778
-0,152718
-0,130030
-0,107211
-0,129413
-0,101356
-0,116482
-0,215137
-0,092417
-0,151058
-0,076607
-0,167767
-0,179267
-0,207444
-0,203085
-0,174338
-0,247145
-0,261262
-0,146891
-0,154820
-0,125359
-0,090387
-0,200043
-0,150542
-0,130252
-0,118141
-0,116472
-0,141536
-0,193126
-0,137629
-0,129912
-0,216552
-0,218072
-0,192770
-0,247054
-0,233422
-0,209681
-0,223033
-0,175913
-0,200004
-0,246619
-0,135940
-0,196515
-0,116092
-0,126208
-0,161886
-0,081564
-0,070551
-0,127889
-0,101280
-0,197714
-0,173724
-0,192794
-0,105828
-0,209758
-0,257235
-0,174643
-0,242024
-0,132213
-0,194321
-0,134940
-0,172973
-0,129293
-0,134315
-0,044254
-0,193122
-0,078338
-0,151983
-0,107099
-0,156846
-0,105280
-0,144249
-0,187776
-0,250303
-0,202939
-0,154081
-0,216183
-0,219082
-0,214229
-0,156518
-0,256878
-0,084534
-0,111985
-0,062664
-0,114518
-0,176549
-0,122659
-0,004874
-0,162571
-0,201063
-0,153282
-0,211363
-0,183603
-0,110686
-0,250145
-0,193847
-0,284281
-0,196393
-0,123121
-0,153522
-0,140015
-0,095612
-0,123830
-0,091764
-0,136395
-0,097095
-0,158064
-0,154594
-0,061539
-0,184999
-0,166957
-0,111677
-0,251591
-0,201683
-0,167190
-0,189721
-0,225608
-0,193723
-0,278257
-0,179463
-0,034378
-0,081349
-0,087697
-0,087610
-0,151642
-0,099543
-0,082156
-0,131627
0,061224
-0,097989
-0,156160
-0,113322
-0,201877
-0,285293
-0,218430
-0,200379
-0,118779
-0,155538
-0,268973
-0,232582
-0,146929
-0,199201
-0,172699
-0,054213
-0,114170
-0,143295
-0,022488
-0,056868
-0,118915
-0,071595
-0,120712
-0,188656
-0,111021
-0,207381
-0,233811
-0,214735
-0,135934
-0,166932
-0,159131
-0,212563
-0,166198
-0,145463
-0,169430
-0,055156
-0,128168
-0,146685
-0,106830
-0,052566
-0,101565
-0,085992
-0,163975
-0,171096
-0,205582
-0,250113
-0,194916
-0,261766
-0,184748
-0,211961
-0,148605
-0,144869
-0,175438
-0,123368
-0,161473
-0,017349
-0,070529
-0,033293
-0,068252
-0,073897
-0,119425
-0,176718
-0,132904
-0,134403
-0,207067
-0,174559
-0,186059
-0,272742
-0,211302
-0,176510
-0,168662
-0,152361
-0,275172
-0,156382
-0,163137
-0,098307
-0,115250
-0,051048
-0,067185
-0,107159
-0,089913
-0,102893
-0,100922
-0,219345
-0,172167
-0,135610
-0,283806
-0,262007
-0,083506
-0,135767
-0,207156
-0,117426
-0,124874
-0,172178
-0,124620
-0,067779
-0,042951
-0,123807
-0,115420
-0,158364
-0,132047
-0,156205
-0,137540
-0,101410
-0,123978
-0,133297
-0,194799
-0,261719
-0,211058
-0,306454
-0,210969
-0,161864
-0,178212
-0,223970
-0,134216
-0,102903
-0,167837
-0,048421
-0,113368
-0,188328
-0,110999
-0,067850
-0,198595
-0,200746
-0,139438
-0,191700
-0,104585
-0,130985
-0,086212
-0,103715
-0,129910
-0,096444
-0,101889
-0,033467
-0,127552
-0,073149
-0,068913
0,004582
-0,136331
-0,067788
-0,023667
-0,041735
-0,183132
-0,072248
-0,139069
-0,125962
-0,120984
-0,172085
-0,145073
-0,085877
-0,065828
-0,222174
-0,120255
-0,054214
0,013802
-0,025722
0,020306
-0,070870
-0,113883
0,051904
-0,127696
-0,061918
-0,009785
-0,079448
-0,122340
-0,106498
-0,095236
-0,125752
-0,139932
-0,093139
-0,080351
-0,097623
-0,063673
-0,159885
-0,068286
-0,042655
0,002633
-0,011694
-0,031987
0,021076
-0,043480
-0,086766
-0,140357
-0,085171
-0,189908
-0,134945
-0,097484
-0,163094
-0,142095
-0,084825
-0,077787
-0,156630
-0,062062
-0,157519
0,008570
-0,058800
-0,079913
-0,078151
-0,016099
-0,054830
-0,011492
-0,067232
-0,154610
-0,100975
-0,116211
-0,113734
-0,176536
-0,180327
-0,171858
-0,197725
-0,189122
-0,079888
-0,075889
-0,062903
-0,162410
-0,014795
-0,059779
-0,035966
-0,078537
-0,148170
-0,113760
-0,043004
-0,098483
-0,130218
-0,238610
-0,126096
-0,201517
-0,254717
-0,163212
-0,156366
-0,165636
-0,130571
-0,161868
-0,194916
-0,083336
-0,171535
-0,178219
-0,062505
-0,138574
-0,082857
-0,141802
-0,090073
-0,139728
-0,217949
-0,128877
-0,212458
-0,156829
-0,202781
-0,201453
-0,169810
-0,258867
-0,136476
-0,167301
-0,130481
-0,234522
-0,109925
-0,159395
-0,188478
0,018759
-0,102213
-0,175609
-0,186689
-0,139169
-0,218243
-0,182982
-0,225829
-0,357417
-0,261519
-0,146672
-0,234516
-0,226966
-0,211132
-0,165472
-0,081342
-0,112798
-0,116405
-0,159785
-0,113684
-0,188264
-0,171254
-0,120361
-0,062218
-0,233859
-0,224582
-0,252441
-0,270766
-0,274226
-0,261231
-0,258883
-0,335603
-0,189594
-0,162556
-0,141832
-0,165557
-0,088997
-0,060185
-0,181347
-0,067932
-0,081950
-0,081370
0,074244
-0,012796
0,033002
0,057293
-0,009417
-0,006230
0,139090
0,101198
0,283138
0,240818
0,428364
0,496803
0,555686
0,653052
0,588000
0,928561
0,912003
0,933792
1,120291
1,151381
1,185932
1,124710
1,085270
1,174148
1,185526
1,117374
1,093785
1,098600
1,030638
1,102769
1,056907
1,021956
0,922451
0,870320
0,789036
0,767261
0,681425
0,554606
0,509314
0,462097
0,463771
0,326328
0,272403
0,063760
0,043220
-0,041750
-0,100160
-0,109795
-0,182671
-0,143189
-0,232891
-0,268989
-0,318271
-0,222876
-0,196482
-0,243701
-0,319742
-0,324512
-0,226482
-0,225809
-0,222679
-0,258013
-0,302262
-0,306452
-0,258490
-0,245073
-0,317137
-0,292219
-0,210863
-0,274567
-0,314382
-0,221299
-0,233831
-0,151225
-0,203878
-0,145996
-0,161344
-0,129770
-0,181714
-0,122448
-0,229767
-0,186365
-0,251609
-0,193317
-0,231275
-0,274774
-0,280841
-0,241955
-0,211253
-0,168221
-0,264499
-0,128080
-0,147015
-0,223882
-0,157510
-0,232950
-0,205322
-0,141191
-0,168173
-0,148896
-0,199443
-0,301615
-0,159980
-0,236670
-0,220459
-0,298208
-0,210013
-0,228354
-0,285515
-0,194895
-0,266104
-0,268259
-0,143943
-0,226074
-0,144555
-0,199337
-0,112532
-0,180893
-0,065780
-0,233323
-0,179341
-0,134601
-0,199748
-0,238335
-0,310504
-0,252197
-0,182226
-0,303629
-0,224671
-0,269673
-0,252674
-0,243952
-0,227262
-0,141386
-0,252409
-0,090808
-0,190202
-0,081235
-0,223642
-0,152679
-0,203687
-0,197063
-0,202474
-0,201848
-0,314415
-0,200532
-0,306832
-0,245112
-0,194620
-0,290218
-0,290169
-0,231107
-0,175850
-0,205883
-0,214924
-0,220031
-0,106998
-0,157287
-0,094849
-0,124085
-0,149080
-0,188089
-0,231055
-0,195026
-0,255575
-0,295520
-0,181833
-0,210801
-0,240461
-0,180523
-0,216693
-0,154627
-0,189792
-0,100910
-0,169164
-0,148519
-0,194139
-0,110821
-0,111958
-0,209694
-0,181519
-0,231335
-0,133883
-0,195973
-0,263546
-0,247609
-0,257997
-0,218870
-0,155048
-0,213741
-0,199231
-0,201430
-0,133873
-0,177691
-0,186671
-0,154161
-0,093682
-0,086968
-0,123068
-0,118715
-0,118731
-0,151603
-0,205037
-0,244464
-0,150656
-0,228255
-0,200757
-0,175238
-0,113932
-0,210392
-0,121980
-0,148354
-0,144968
-0,018963
-0,108764
-0,112273
-0,117101
-0,076802
-0,111647
-0,112974
-0,074476
-0,124062
-0,185264
-0,225936
-0,240825
-0,171379
-0,201210
-0,160448
-0,112891
-0,154806
-0,124187
-0,061407
-0,156604
-0,174511
-0,138047
-0,046512
-0,044305
-0,066690
-0,062148
-0,023547
0,120499
-0,042001
-0,117626
-0,051280
-0,070493
-0,064932
-0,114336
-0,002405
-0,046400
-0,201058
-0,051775
-0,099334
-0,020520
-0,084858
-0,070052
0,032893
-0,074838
-0,034121
0,008496
-0,026107
0,003339
0,041869
-0,008925
-0,053011
-0,065174
-0,116632
-0,040755
-0,156921
-0,094721
-0,044836
-0,005951
-0,034109
0,035104
-0,019172
-0,022881
0,069337
-0,014456
0,125672
0,213282
0,048879
0,009514
0,059781
0,023899
0,037741
0,111139
-0,021561
-0,050885
-0,086744
-0,063823
-0,032482
-0,020454
0,093975
0,176341
0,133515
0,080839
0,121848
0,106618
0,071375
0,163183
0,058947
0,132297
-0,027394
0,077785
-0,014892
-0,002893
0,001028
0,031529
0,018180
0,026873
0,065628
-0,113662
0,041585
0,066681
-0,002946
0,073733
0,024613
0,122540
0,072953
0,031553
0,111931
0,040487
0,052003
0,000803
0,041468
0,066175
-0,038394
0,009423
-0,012375
-0,057199
0,013735
0,036128
-0,022488
-0,021096
0,016954
-0,038412
0,055865
0,122597
0,053538
0,011962
0,037227
0,077062
0,008307
-0,070396
-0,086148
-0,000678
-0,087486
-0,054972
-0,047304
0,010731
-0,130258
-0,023977
-0,092415
-0,036593
-0,011262
0,038202
-0,037090
0,044068
-0,030402
-0,044569
0,086392
-0,102947
-0,030315
-0,052615
-0,103687
-0,005307
-0,089727
-0,062492
-0,135456
-0,173197
-0,102338
-0,086009
-0,127587
-0,115607
-0,099942
-0,074899
0,000678
-0,058964
-0,149217
-0,017199
-0,042985
-0,125530
-0,059616
-0,163393
-0,113835
-0,128068
-0,106617
-0,184507
-0,170776
-0,135029
-0,120559
-0,227014
-0,201447
-0,190891
-0,152675
-0,147136
-0,231095
-0,060149
-0,166605
-0,051874
-0,141539
-0,151355
-0,178488
-0,179187
-0,214885
-0,204858
-0,243686
-0,268728
-0,348632
-0,233947
-0,237081
-0,215419
-0,206474
-0,204666
-0,173364
-0,175967
-0,159968
-0,179481
-0,163960
-0,155646
-0,130215
-0,103848
-0,145290
-0,173966
-0,204041
-0,179779
-0,252658
-0,210598
-0,305951
-0,220160
-0,350029
-0,276845
-0,298329
-0,216649
-0,130606
-0,212327
-0,124222
-0,205075
-0,166434
-0,284179
-0,147525
-0,274024
-0,182809
-0,237662
-0,242430
-0,166529
-0,273591
-0,262538
-0,281906
-0,321575
-0,320924
-0,257815
-0,116513
-0,240673
-0,233899
-0,176308
-0,244316
-0,241777
-0,108030
-0,272927
-0,278121
-0,291705
-0,255857
-0,337066
-0,249559
-0,394404
-0,316294
-0,341000
-0,229328
-0,333021
-0,372763
-0,256213
-0,230169
-0,197907
-0,256155
-0,140431
-0,270301
-0,100152
-0,161412
-0,252544
-0,122452
-0,249161
-0,243665
-0,323035
-0,276742
-0,238209
-0,343892
-0,238158
-0,136725
-0,425620
-0,299314
-0,259615
-0,233659
-0,319282
-0,357998
-0,239503
-0,230771
-0,121474
-0,215332
-0,204732
-0,165785
-0,231678
-0,217459
-0,289061
-0,298872
-0,320185
-0,318232
-0,285230
-0,312667
-0,314081
-0,331580
-0,221777
-0,312378
-0,182551
-0,242486
-0,209829
-0,142143
-0,248637
-0,244111
-0,198290
-0,354713
-0,258712
-0,262068
-0,319791
-0,233612
-0,226544
-0,364330
-0,280537
-0,387795
-0,334591
-0,271618
-0,262240
-0,287701
-0,280006
-0,201877
-0,242814
-0,173969
-0,212038
-0,243232
-0,164504
-0,255007
-0,212913
-0,180337
-0,313739
-0,254726
-0,299703
-0,316758
-0,297734
-0,319618
-0,313484
-0,263974
-0,285673
-0,318515
-0,298301
-0,313637
-0,065110
-0,255999
-0,238558
-0,298047
-0,274756
-0,174781
-0,233663
-0,266441
-0,203272
-0,234758
-0,205357
-0,354872
-0,390951
-0,269255
-0,323962
-0,360250
-0,333397
-0,247561
-0,204866
-0,234231
-0,254772
-0,248917
-0,303085
-0,186694
-0,193903
-0,241465
-0,256761
-0,244791
-0,155514
-0,279184
-0,300000
-0,295978
-0,430108
-0,299208
-0,313181
-0,323804
-0,319280
-0,231494
-0,232091
-0,252156
-0,163602
-0,226809
-0,176057
-0,259871
-0,293095
-0,241370
-0,196077
-0,296158
-0,235091
-0,181120
-0,346443
-0,258346
-0,313079
-0,330122
-0,253389
-0,355166
-0,363334
-0,335562
-0,163153
-0,264813
-0,265799
-0,187403
-0,206015
-0,228269
-0,164352
-0,207167
-0,235150
-0,170087
-0,340804
-0,283244
-0,295096
-0,388998
-0,297187
-0,304744
-0,274955
-0,260134
-0,310089
-0,273897
-0,307568
-0,266088
-0,334564
-0,264684
-0,253839
-0,111170
-0,138371
-0,293588
-0,199242
-0,220667
-0,343101
-0,334810
-0,255463
-0,239911
-0,294988
-0,290670
-0,297847
-0,219253
-0,274091
-0,247618
-0,279064
-0,251585
-0,279919
-0,253782
-0,186355
-0,278563
-0,198113
-0,233354
-0,271435
-0,239742
-0,344630
-0,320386
-0,231436
-0,267399
-0,353613
-0,390495
-0,291897
-0,314320
-0,237629
-0,271917
-0,259789
-0,293793
-0,237930
-0,176137
-0,171456
-0,240536
-0,169704
-0,197288
-0,169143
-0,230692
-0,343126
-0,271912
-0,297136
-0,393247
-0,260649
-0,292188
-0,339022
-0,379945
-0,383666
-0,219461
-0,222303
-0,184799
-0,236746
-0,205722
-0,235080
-0,199093
-0,299527
-0,185537
-0,180657
-0,181654
-0,284606
-0,321700
-0,362818
-0,202281
-0,307251
-0,369594
-0,299995
-0,327158
-0,325352
-0,254430
-0,288886
-0,174239
-0,316853
-0,338058
-0,175224
-0,147226
-0,243322
-0,271730
-0,219248
-0,266185
-0,135758
-0,387941
-0,328647
-0,307375
-0,290646
-0,288947
-0,250393
-0,263381
-0,327024
-0,307741
-0,351487
-0,241491
-0,243604
-0,179494
-0,294490
-0,252980
-0,144866
-0,235934
-0,226894
-0,276510
-0,246989
-0,239506
-0,362079
-0,304457
-0,325338
-0,265261
-0,382914
-0,316157
-0,283786
-0,320687
-0,224150
-0,318966
-0,432579
-0,136779
-0,314057
-0,314222
-0,252079
-0,260681
-0,239280
-0,382959
-0,280710
-0,260162
-0,296146
-0,391003
-0,283863
-0,295927
-0,330056
-0,300301
-0,391808
-0,357178
-0,247096
-0,254100
-0,301476
-0,302290
-0,260772
-0,227028
-0,259000
-0,260613
-0,171781
-0,194462
-0,278072
-0,279896
-0,298117
-0,360198
-0,277046
-0,343622
-0,248914
-0,206120
-0,338774
-0,218647
-0,307612
-0,303966
-0,187604
-0,150901
-0,171505
-0,154605
-0,226017
-0,179442
-0,234125
-0,227535
-0,305175
-0,288525
-0,261156
-0,298035
-0,414089
-0,400059
-0,291615
-0,383834
-0,327914
-0,293671
-0,323155
-0,277630
-0,151668
-0,145892
-0,289770
-0,229649
-0,225833
-0,189453
-0,260175
-0,269422
-0,236789
-0,324632
-0,319808
-0,238118
-0,287228
-0,342670
-0,296219
-0,277606
-0,250347
-0,148756
-0,279106
-0,322719
-0,316859
-0,282621
-0,177240
-0,219085
-0,249063
-0,102480
-0,224302
-0,233375
-0,331976
-0,235346
-0,264600
-0,302229
-0,277515
-0,218060
-0,281092
-0,186407
-0,242384
-0,165934
-0,170084
-0,178625
-0,230436
-0,158104
-0,167164
-0,187930
-0,267342
-0,264578
-0,276768
-0,218990
-0,221946
-0,310216
-0,250449
-0,268932
-0,243141
-0,248004
-0,255761
-0,252435
-0,284929
-0,201203
-0,194555
-0,181270
-0,177813
-0,101140
-0,124247
-0,132471
-0,136550
-0,200686
-0,147831
-0,245185
-0,136951
-0,174980
-0,171681
-0,246183
-0,199445
-0,289697
-0,214376
-0,288564
-0,202472
-0,217145
-0,143775
-0,118481
-0,102314
-0,174721
-0,159705
-0,119562
-0,211841
-0,012190
-0,201298
-0,144733
-0,176680
-0,210132
-0,303954
-0,211013
-0,285552
-0,286944
-0,269466
-0,283797
-0,185285
-0,158390
-0,148371
-0,264160
-0,071459
-0,162122
-0,244660
-0,178527
-0,187624
-0,227294
-0,134829
-0,151925
-0,161588
-0,231450
-0,215811
-0,289077
-0,324087
-0,269497
-0,310292
-0,339173
-0,228361
-0,209501
-0,215144
-0,219760
-0,232144
-0,284059
-0,185587
-0,140026
-0,202746
-0,268526
-0,260578
-0,217976
-0,319765
-0,264039
-0,351492
-0,197381
-0,346835
-0,302043
-0,319452
-0,131062
-0,385181
-0,385756
-0,266967
-0,171369
-0,232176
-0,167162
-0,211167
-0,215721
-0,169189
-0,336534
-0,324533
-0,282254
-0,237364
-0,315565
-0,283418
-0,384412
-0,397543
-0,345069
-0,342701
-0,263716
-0,282955
-0,316648
-0,168191
-0,195897
-0,242276
-0,197779
-0,237591
-0,222248
-0,247578
-0,226449
-0,224506
-0,247354
-0,245700
-0,158023
-0,295468
-0,324262
-0,243498
-0,321121
-0,400777
-0,293370
-0,350085
-0,325535
-0,296491
-0,311447
-0,305712
-0,338420
-0,286427
-0,198541
-0,297602
-0,366192
-0,334901
-0,260833
-0,361147
-0,451250
-0,304028
-0,332441
-0,302849
-0,292833
-0,451943
-0,427269
-0,330009
-0,420101
-0,269140
-0,226912
-0,315671
-0,294536
-0,325603
-0,304028
-0,299975
-0,238236
-0,299285
-0,200727
-0,180234
-0,236373
-0,273043
-0,110703
-0,117440
-0,050687
-0,165579
-0,087331
-0,011111
0,064843
0,222615
0,211999
0,290752
0,321093
0,437172
0,558419
0,561390
0,713508
0,769240
0,895835
0,720996
0,833915
0,901081
0,851672
0,982539
1,014718
1,050659
1,052288
1,000936
1,106076
0,879723
0,976272
0,981891
0,961155
0,890244
0,741812
0,703298
0,647211
0,611193
0,451125
0,421694
0,214836
0,169046
0,144004
0,051486
0,007119
-0,075339
-0,203903
-0,052170
-0,200425
-0,147359
-0,269942
-0,297184
-0,190013
-0,210468
-0,255806
-0,297843
-0,341534
-0,320836
-0,430417
-0,429234
-0,432571
-0,430858
-0,412089
-0,436660
-0,440764
-0,430818
-0,374934
-0,454536
-0,384884
-0,285027
-0,371407
-0,287363
-0,249987
-0,352914
-0,263204
-0,206219
-0,286930
-0,269733
-0,325597
-0,317669
-0,376839
-0,402300
-0,425868
-0,337762
-0,368797
-0,477804
-0,430378
-0,280523
-0,326062
-0,340266
-0,238399
-0,341148
-0,239938
-0,246191
-0,227860
-0,315734
-0,225080
-0,239638
-0,299832
-0,301436
-0,313963
-0,329206
-0,345800
-0,344722
-0,364608
-0,374384
-0,290009
-0,333039
-0,268389
-0,338332
-0,267682
-0,305104
-0,318869
-0,286643
-0,291268
-0,281823
-0,339168
-0,329836
-0,315402
-0,301534
-0,234336
-0,425865
-0,292364
-0,410970
-0,380707
-0,445754
-0,342540
-0,338311
-0,324088
-0,282212
-0,248416
-0,266383
-0,291541
-0,285501
-0,201864
-0,231274
-0,367801
-0,258344
-0,284374
-0,346896
-0,363812
-0,321414
-0,313424
-0,292491
-0,343921
-0,463893
-0,328376
-0,357240
-0,254548
-0,317387
-0,328928
-0,332579
-0,253125
-0,321914
-0,261002
-0,238028
-0,242572
-0,317259
-0,310543
-0,275826
-0,365877
-0,359788
-0,324512
-0,293290
-0,394388
-0,417191
-0,276724
-0,440634
-0,353404
-0,245480
-0,308184
-0,285281
-0,278065
-0,269854
-0,229499
-0,194656
-0,262277
-0,258063
-0,351422
-0,243693
-0,354411
-0,367335
-0,272677
-0,356550
-0,278948
-0,331018
-0,333008
-0,296476
-0,201497
-0,346327
-0,247899
-0,351129
-0,220283
-0,221481
-0,205500
-0,256354
-0,165282
-0,144230
-0,226733
-0,312883
-0,227611
-0,295702
-0,426287
-0,316275
-0,362675
-0,355080
-0,255092
-0,311266
-0,326467
-0,234793
-0,241621
-0,270730
-0,226682
-0,231053
-0,199701
-0,193483
-0,138664
-0,106705
-0,342805
-0,154505
-0,193843
-0,247020
-0,281527
-0,245020
-0,254185
-0,270087
-0,301901
-0,212514
-0,124167
-0,181963
-0,247350
-0,200383
-0,146468
-0,176148
-0,099645
-0,155894
-0,187625
-0,244337
-0,319410
-0,155302
-0,195082
-0,180052
-0,162585
-0,182245
-0,218413
-0,215997
-0,209301
-0,200362
-0,281285
-0,251359
-0,183180
-0,162733
-0,062359
-0,093162
-0,010155
-0,144838
-0,046230
-0,124248
-0,130781
-0,099178
-0,183967
-0,109429
-0,222952
-0,223104
-0,191398
-0,117111
-0,179563
-0,190671
-0,150771
-0,102175
-0,174060
0,014733
-0,002850
-0,063859
-0,062128
-0,041164
-0,043695
-0,052562
-0,095678
-0,048038
-0,107236
-0,088686
-0,204192
-0,135753
-0,133183
-0,187620
-0,150185
-0,125913
-0,030775
-0,116210
-0,083293
-0,019065
0,007134
-0,060887
-0,081341
0,004234
0,044719
0,026647
-0,053111
-0,118388
-0,189174
-0,072423
-0,061643
-0,057566
-0,075383
-0,163606
-0,114725
-0,117552
0,020721
-0,132418
-0,033484
-0,003729
0,013671
-0,005014
0,072935
-0,129450
-0,030727
-0,024711
-0,090721
0,006574
-0,086597
-0,173108
-0,097867
-0,072188
-0,164606
-0,155517
-0,177110
-0,125092
-0,054541
-0,210911
-0,227443
-0,058189
-0,126396
-0,068818
0,023964
-0,066822
-0,009174
-0,043512
-0,217280
-0,101634
-0,116929
-0,192765
-0,170316
-0,101285
-0,278436
-0,210403
-0,149982
-0,080124
-0,128016
-0,181162
-0,079062
-0,151654
-0,113482
-0,099175
-0,101938
-0,185712
-0,128084
-0,176156
-0,181867
-0,199879
-0,183107
-0,238816
-0,195315
-0,214796
-0,236941
-0,248832
-0,241216
-0,142190
-0,262103
-0,140897
-0,125522
-0,144886
-0,175504
-0,158752
-0,213243
-0,116441
-0,107554
-0,133689
-0,135251
-0,204042
-0,251685
-0,251527
-0,146792
-0,254919
-0,305903
-0,273615
-0,326101
-0,391348
-0,244603
-0,228132
-0,259194
-0,243038
-0,239994
-0,179662
-0,142394
-0,156983
-0,191051
-0,141361
-0,330360
-0,360443
-0,288612
-0,253237
-0,351467
-0,347540
-0,325643
-0,337952
-0,308084
-0,292785
-0,245860
-0,247007
-0,291798
-0,323297
-0,294906
-0,197915
-0,234409
-0,270310
-0,257274
-0,319325
-0,322125
-0,244108
-0,342592
-0,364765
-0,310960
-0,364394
-0,380752
-0,485998
-0,287016
-0,360755
-0,283882
-0,307402
-0,383791
-0,343441
-0,303270
-0,243676
-0,196626
-0,266033
-0,331766
-0,298359
-0,341830
-0,340081
-0,341469
-0,345348
-0,353611
-0,364547
-0,351104
-0,334473
-0,423692
-0,340803
-0,280009
-0,359948
-0,284894
-0,294761
-0,263206
-0,308356
-0,252706
-0,294389
-0,261236
-0,227821
-0,344113
-0,298986
-0,368773
-0,250382
-0,352897
-0,348295
-0,308104
-0,328005
-0,363355
-0,410042
-0,303268
-0,374922
-0,324271
-0,312775
-0,279873
-0,253126
-0,280181
-0,287986
-0,294727
-0,282354
-0,281219
-0,284361
-0,329422
-0,324463
-0,370674
-0,343591
-0,309477
-0,400607
-0,340869
-0,373517
-0,390414
-0,299728
-0,340425
-0,219519
-0,248744
-0,228790
-0,247005
-0,257259
-0,266548
-0,381171
-0,382589
-0,274864
-0,345280
-0,378346
-0,409579
-0,354417
-0,350487
-0,400856
-0,365089
-0,280009
-0,389123
-0,303927
-0,335521
-0,314875
-0,364545
-0,175621
-0,267692
-0,342936
-0,297298
-0,301037
-0,284159
-0,367731
-0,384014
-0,373832
-0,470055
-0,301425
-0,311847
-0,330093
-0,368621
-0,494803
-0,310543
-0,369900
-0,322560
-0,216040
-0,282257
-0,203067
-0,266542
-0,236425
-0,229946
-0,312192
-0,332904
-0,359495
-0,399563
-0,283828
-0,375075
-0,488745
-0,335052
-0,444522
-0,308350
-0,199224
-0,352336
-0,244942
-0,274766
-0,339456
-0,343387
-0,276742
-0,302267
-0,283901
-0,241285
-0,255802
-0,373271
-0,346468
-0,338806
-0,309924
-0,389864
-0,317842
-0,451197
-0,434499
-0,340614
-0,328673
-0,369285
-0,318127
-0,296995
-0,335539
-0,263028
-0,194189
-0,284621
-0,318985
-0,207480
-0,314185
-0,326987
-0,330275
-0,387728
-0,320046
-0,426178
-0,341228
-0,371322
-0,321849
-0,380739
-0,311919
-0,356435
-0,309164
-0,291908
-0,257008
-0,247574
-0,291263
-0,383630
-0,325428
-0,299810
-0,301120
-0,181036
-0,382262
-0,327631
-0,408500
-0,313279
-0,343885
-0,386473
-0,403214
-0,382218
-0,362314
-0,280450
-0,338291
-0,293634
-0,369139
-0,294633
-0,294875
-0,257485
-0,280793
-0,221367
-0,287750
-0,312799
-0,356720
-0,341903
-0,329835
-0,367089
-0,303663
-0,379070
-0,354771
-0,352518
-0,199408
-0,323285
-0,327917
-0,253340
-0,317447
-0,319529
-0,261594
-0,224435
-0,264361
-0,157873
-0,274927
-0,362405
-0,323761
-0,321004
-0,262998
-0,379380
-0,297156
-0,396550
-0,333517
-0,394345
-0,322182
-0,357050
-0,297007
-0,297547
-0,302172
-0,318010
-0,299489
-0,232117
-0,249800
-0,261172
-0,319993
-0,284363
-0,323203
-0,363443
-0,354141
-0,409785
-0,385445
-0,306237
-0,336661
-0,269916
-0,278024
-0,392758
-0,303391
-0,280565
-0,250467
-0,289651
-0,245933
-0,324632
-0,304070
-0,237431
-0,244144
-0,299475
-0,313753
-0,297706
-0,257639
-0,301197
-0,373215
-0,397897
-0,309707
-0,390360
-0,291504
-0,351061
-0,255088
-0,261586
-0,265233
-0,304574
-0,150076
-0,310134
-0,271854
-0,207013
-0,254324
-0,270925
-0,380408
-0,229456
-0,305450
-0,336996
-0,291698
-0,366974
-0,301590
-0,245380
-0,344779
-0,375257
-0,366198
-0,307921
-0,272730
-0,272502
-0,199934
-0,168738
-0,344004
-0,232985
-0,212854
-0,226170
-0,239097
-0,313281
-0,394604
-0,311446
-0,373352
-0,299353
-0,313499
-0,348153
-0,432039
-0,373235
-0,251322
-0,360967
-0,382046
-0,355622
-0,203433
-0,283462
-0,197720
-0,272035
-0,278094
-0,314256
-0,317352
-0,332438
-0,264470
-0,291716
-0,472775
-0,370139
-0,362705
-0,381166
-0,256238
-0,392347
-0,273720
-0,258566
-0,276466
-0,307746
-0,347962
-0,236836
-0,301435
-0,245927
-0,275777
-0,292362
-0,343692
-0,357500
-0,312336
-0,297782
-0,388534
-0,324330
-0,296683
-0,414813
-0,345571
-0,280434
-0,313755
-0,322879
-0,268187
-0,353379
-0,283923
-0,265715
-0,285144
-0,405277
-0,211942
-0,262402
-0,357562
-0,356105
-0,268910
-0,428167
-0,298562
-0,407947
-0,297689
-0,374598
-0,308082
-0,236707
-0,246380
-0,277231
-0,213328
-0,264674
-0,302898
-0,170243
-0,290430
-0,227308
-0,307808
-0,315288
-0,360839
-0,410444
-0,318553
-0,273736
-0,375794
-0,312527
-0,315457
-0,251350
-0,286440
-0,327008
-0,283504
-0,351496
-0,372239
-0,213073
-0,241664
-0,188627
-0,309398
-0,297731
-0,336702
-0,300829
-0,250456
-0,218771
-0,347013
-0,334403
-0,348559
-0,333858
-0,368530
-0,250209
-0,279000
-0,266485
-0,321821
-0,287060
-0,221207
-0,369919
-0,191758
-0,150755
-0,196939
-0,222281
-0,193905
-0,295448
-0,278226
-0,257937
-0,333304
-0,310325
-0,248932
-0,332491
-0,314808
-0,305132
-0,155608
-0,265440
-0,164436
-0,252921
-0,207467
-0,139771
-0,254310
-0,067998
-0,127754
-0,144318
-0,186076
-0,146762
-0,118748
-0,168859
-0,215432
-0,239711
-0,316536
-0,318182
-0,361705
-0,305368
-0,318700
-0,343506
-0,273271
-0,210256
-0,209607
-0,091557
-0,202860
-0,144313
-0,155838
-0,106265
-0,214879
-0,159490
-0,268709
-0,214482
-0,188500
-0,200257
-0,193634
-0,275382
-0,245089
-0,310710
-0,196023
-0,157285
-0,193947
-0,054875
-0,211982
-0,131354
-0,178846
-0,176125
-0,212477
-0,161575
-0,179473
-0,189129
-0,131292
-0,223202
-0,243578
-0,244423
-0,295832
-0,212612
-0,316756
-0,190693
-0,273605
-0,237619
-0,237471
-0,220194
-0,205785
-0,209817
-0,226211
-0,203570
-0,173241
-0,172538
-0,262736
-0,193931
-0,209738
-0,180786
-0,331177
-0,239764
-0,214288
-0,207450
-0,347803
-0,372356
-0,217549
-0,198923
-0,176659
-0,182141
-0,245141
-0,221519
-0,176176
-0,321780
-0,213869
-0,204717
-0,225058
-0,333763
-0,397583
-0,244625
-0,255040
-0,323278
-0,424664
-0,269665
-0,399434
-0,284200
-0,265347
-0,300682
-0,209322
-0,285731
-0,214054
-0,185446
-0,251162
-0,254228
-0,214224
-0,192703
-0,235589
-0,247665
-0,260363
-0,302368
-0,292842
-0,344296
-0,389742
-0,304159
-0,413979
-0,290904
-0,210971
-0,248245
-0,216809
-0,270252
-0,210407
-0,311291
-0,222866
-0,242627
-0,219163
-0,288990
-0,248383
-0,261910
-0,281105
-0,327219
-0,280351
-0,400672
-0,351755
-0,364434
-0,324629
-0,384716
-0,410066
-0,380290
-0,323699
-0,332571
-0,282453
-0,313746
-0,254194
-0,271799
-0,238021
-0,294272
-0,273709
-0,311540
-0,260579
-0,183979
-0,277523
-0,312998
-0,267548
-0,215959
-0,150854
-0,157871
-0,124578
-0,100858
-0,021828
0,043201
0,126359
0,210059
0,221997
0,306903
0,389198
0,481412
0,584901
0,538107
0,612931
0,738928
0,767110
0,849396
0,809163
0,869731
0,954412
0,982377
0,994038
1,056641
0,987295
1,071356
1,092433
0,900851
0,846378
0,909985
0,970180
0,819091
0,590397
0,554276
0,427929
0,396530
0,400417
0,291376
0,136832
0,051478
-0,005777
-0,061739
-0,111806
-0,069142
-0,213647
-0,235398
-0,167918
-0,146394
-0,217281
-0,159011
-0,297380
-0,287139
-0,244137
-0,294522
-0,417165
-0,489156
-0,432906
-0,408791
-0,420380
-0,385868
-0,403254
-0,343381
-0,338484
-0,365295
-0,423707
-0,261928
-0,265606
-0,258279
-0,233395
-0,290786
-0,217510
-0,312860
-0,251602
-0,313449
-0,296908
-0,314757
-0,299077
-0,315262
-0,302176
-0,344889
-0,337082
-0,332188
-0,317514
-0,394846
-0,206651
-0,250312
-0,215003
-0,254022
-0,272100
-0,314783
-0,216447
-0,251999
-0,235909
-0,229038
-0,288801
-0,342998
-0,244681
-0,270940
-0,325596
-0,316588
-0,228357
-0,300191
-0,338633
-0,354348
-0,305791
-0,243558
-0,267816
-0,209029
-0,211163
-0,318649
-0,252906
-0,312202
-0,298792
-0,252765
-0,280570
-0,257761
-0,281421
-0,279550
-0,339938
-0,309337
-0,239065
-0,402913
-0,156467
-0,338613
-0,228785
-0,310701
-0,306293
-0,266000
-0,200554
-0,251753
-0,264453
-0,286540
-0,233093
-0,248820
-0,291069
-0,335248
-0,279190
-0,362403
-0,326608
-0,271524
-0,363425
-0,380720
-0,328331
-0,308930
-0,226300
-0,315270
-0,196351
-0,194682
-0,239497
-0,241740
-0,240006
-0,284880
-0,230316
-0,224485
-0,259696
-0,385349
-0,198304
-0,376295
-0,266414
-0,440105
-0,358061
-0,231269
-0,216263
-0,273945
-0,238242
-0,162715
-0,208139
-0,169099
-0,168909
-0,265450
-0,139725
-0,196001
-0,295399
-0,220887
-0,215478
-0,191389
-0,266590
-0,272456
-0,303410
-0,315343
-0,280323
-0,313694
-0,217042
-0,230555
-0,230135
-0,156079
-0,161671
-0,119001
-0,206821
-0,161191
-0,137776
-0,228761
-0,161932
-0,124783
-0,235500
-0,233186
-0,267928
-0,193520
-0,240351
-0,134519
-0,336054
-0,317029
-0,212499
-0,208761
-0,171211
-0,202997
-0,277118
-0,200813
-0,147299
-0,133909
-0,032148
-0,136987
-0,229128
-0,100570
-0,145433
-0,220266
-0,255378
-0,170165
-0,233976
-0,128218
-0,286101
-0,198023
-0,194044
-0,270758
-0,166528
-0,160813
-0,195198
-0,119950
-0,004611
-0,082913
0,055250
-0,145631
-0,166872
-0,084762
-0,110174
-0,208450
-0,173656
-0,228244
-0,113978
-0,275729
-0,198530
-0,074899
-0,161675
-0,151711
-0,109169
-0,050054
-0,036598
-0,131868
-0,019540
-0,047176
0,079076
-0,052662
-0,081530
-0,070279
0,004932
-0,037943
-0,162222
-0,079014
-0,051348
-0,129631
-0,079793
-0,159490
-0,119326
-0,111630
-0,017548
0,026430
-0,068020
0,019661
0,009285
0,015495
0,049924
0,036171
0,000433
0,012516
0,024340
-0,143729
-0,014385
-0,054143
-0,107515
-0,117870
-0,093041
-0,023961
-0,048551
-0,042300
-0,049227
0,032077
0,023786
-0,056527
0,107432
0,018350
-0,060949
-0,008493
0,056622
0,009343
0,028105
0,030813
0,044728
-0,039669
-0,076846
-0,125855
-0,054736
-0,027163
0,004473
-0,045915
0,111338
-0,011724
0,073891
-0,000430
0,082768
0,040175
0,015382
0,105424
0,121325
-0,021767
-0,028680
-0,047099
-0,020413
-0,064380
-0,094581
-0,108083
-0,009537
-0,086324
-0,098367
-0,072731
-0,050855
-0,072494
0,013739
0,006836
-0,125661
0,027055
-0,050124
0,011216
-0,039514
-0,069331
-0,058632
-0,069326
-0,129635
-0,109060
-0,130506
-0,145308
-0,134483
-0,100516
-0,097026
0,004994
-0,129850
-0,134935
-0,017899
-0,078572
-0,030741
-0,023465
0,005458
-0,092775
-0,065443
-0,057652
-0,103003
-0,162296
-0,105363
-0,156200
-0,120122
-0,196077
-0,251499
-0,141452
-0,196093
-0,173573
-0,152756
-0,240355
-0,105626
-0,085209
-0,087842
-0,064741
-0,182163
-0,154192
-0,198441
-0,081787
-0,120771
-0,140333
-0,220610
-0,218284
-0,073632
-0,165554
-0,119559
-0,204690
-0,164367
-0,211396
-0,156993
-0,178438
-0,256309
-0,118770
-0,092676
-0,247065
-0,089094
-0,191980
-0,185145
-0,269368
-0,178476
-0,173732
-0,302289
-0,239718
-0,314005
-0,280200
-0,212904
-0,288549
-0,247550
-0,268570
-0,185930
-0,187803
-0,267491
-0,220690
-0,133149
-0,184243
-0,173729
-0,275534
-0,188323
-0,254190
-0,204610
-0,264390
-0,333875
-0,235108
-0,252174
-0,270858
-0,239994
-0,261373
-0,208296
-0,214846
-0,211062
-0,333502
-0,225966
-0,155149
-0,237903
-0,225725
-0,234615
-0,194795
-0,227020
-0,251139
-0,137787
-0,221307
-0,193761
-0,269486
-0,279468
-0,246000
-0,309934
-0,245010
-0,294451
-0,186179
-0,271399
-0,305353
-0,259762
-0,241160
-0,202758
-0,150430
-0,143357
-0,095840
-0,163946
-0,258635
-0,137134
-0,293639
-0,237852
-0,226189
-0,241930
-0,332151
-0,341353
-0,355266
-0,223433
-0,266631
-0,314458
-0,253797
-0,258219
-0,230057
-0,293645
-0,249524
-0,204045
-0,183639
-0,129263
-0,273081
-0,275919
-0,315110
-0,307825
-0,300564
-0,231593
-0,235777
-0,252757
-0,367071
-0,206058
-0,215672
-0,225267
-0,183307
-0,166532
-0,250390
-0,271394
-0,202306
-0,157637
-0,195930
-0,127752
-0,254380
-0,198056
-0,311485
-0,192877
-0,148017
-0,242282
-0,240506
-0,338928
-0,257619
-0,360783
-0,231972
-0,278431
-0,130011
-0,233094
-0,227419
-0,197156
-0,172914
-0,198839
-0,104909
-0,156926
-0,167066
-0,143508
-0,198840
-0,260962
-0,366984
-0,247146
-0,197390
-0,204809
-0,298737
-0,265446
-0,224457
-0,271995
-0,170487
-0,178616
-0,215205
-0,073805
-0,290903
-0,229941
-0,187849
-0,113174
-0,174860
-0,179458
-0,159627
-0,290495
-0,291150
-0,339409
-0,228685
-0,253962
-0,236752
-0,182116
-0,215329
-0,222441
-0,182319
-0,093660
-0,167429
-0,132781
-0,095760
-0,215125
-0,245886
-0,187219
-0,190924
-0,155854
-0,258937
-0,170255
-0,261413
-0,288594
-0,235796
-0,389438
-0,278912
-0,220105
-0,285279
-0,243267
-0,307968
-0,170793
-0,174627
-0,167547
-0,133628
-0,176063
-0,178722
-0,117380
-0,189219
-0,228075
-0,270004
-0,274528
-0,219983
-0,240388
-0,252321
-0,355684
-0,286902
-0,268034
-0,233168
-0,228251
-0,143631
-0,211887
-0,159244
-0,218773
-0,176401
-0,151545
-0,140958
-0,247502
-0,139613
-0,216498
-0,148038
-0,193684
-0,218092
-0,252781
-0,204691
-0,188973
-0,233092
-0,235103
-0,205173
-0,191220
-0,247370
-0,139487
-0,156255
-0,188224
-0,180033
-0,102871
-0,219835
-0,237928
-0,184960
-0,141644
-0,224275
-0,193374
-0,260249
-0,269679
-0,217177
-0,105681
-0,333417
-0,319324
-0,184957
-0,169471
-0,210123
-0,184472
-0,257613
-0,176755
-0,121893
-0,127415
-0,207639
-0,223539
-0,230359
-0,191212
-0,218622
-0,153272
-0,299027
-0,290042
-0,252919
-0,311881
-0,283625
-0,233205
-0,218792
-0,171631
-0,177843
-0,191043
-0,126411
-0,249007
-0,236528
-0,164950
-0,178272
-0,209740
-0,204596
-0,192338
-0,210381
-0,303029
-0,229989
-0,243114
-0,249087
-0,314537
-0,305604
-0,229168
-0,291141
-0,201106
-0,213085
-0,172440
-0,153025
-0,178338
-0,186676
-0,089737
-0,232489
-0,086644
-0,263810
-0,347478
-0,232239
-0,210177
-0,218195
-0,225798
-0,252562
-0,255735
-0,367093
-0,248878
-0,225004
-0,211519
-0,150191
-0,148183
-0,089916
-0,209615
-0,156445
-0,155772
-0,191130
-0,138978
-0,252179
-0,233541
-0,233113
-0,272714
-0,243513
-0,246593
-0,176649
-0,302885
-0,143657
-0,301771
-0,250070
-0,078035
-0,235766
-0,119457
-0,125913
-0,145853
-0,147845
-0,046835
-0,132429
-0,184292
-0,189262
-0,198310
-0,180662
-0,244250
-0,134427
-0,292787
-0,225602
-0,184520
-0,274661
-0,114234
-0,112055
-0,146795
-0,184002
-0,171037
-0,185249
-0,161578
-0,186878
-0,203942
-0,193444
-0,155853
-0,135544
-0,253902
-0,254569
-0,085854
-0,252228
-0,224842
-0,251070
-0,200933
-0,140772
-0,277582
-0,171354
-0,132627
-0,144861
-0,144997
-0,135970
-0,156600
-0,147144
-0,201052
-0,124820
-0,245879
-0,181010
-0,161806
-0,171668
-0,284997
-0,212069
-0,218006
-0,232903
-0,231502
-0,217106
-0,231121
-0,223428
-0,168803
-0,138370
-0,160166
-0,205292
-0,228360
-0,190285
-0,092083
-0,151914
-0,205037
-0,117924
-0,125194
-0,179931
-0,338302
-0,146239
-0,171067
-0,196759
-0,200712
-0,259464
-0,158296
-0,185104
-0,168082
-0,129803
-0,149345
-0,095632
-0,103604
-0,162783
-0,093270
-0,202819
-0,177110
-0,186425
-0,104208
-0,221682
-0,213991
-0,242160
-0,209246
-0,192652
-0,236869
-0,232864
-0,157363
-0,203328
0,035627
-0,135782
-0,104762
-0,151002
-0,180108
-0,073149
-0,101126
-0,087494
-0,058127
-0,189850
-0,146468
-0,218892
-0,133623
-0,084683
-0,120823
-0,149162
-0,229193
-0,205381
-0,103822
-0,215782
-0,182232
-0,079099
-0,087514
-0,120884
-0,094876
-0,065417
-0,055687
0,073265
-0,058547
-0,036356
-0,119911
-0,074994
-0,064787
-0,126775
-0,219552
-0,040195
-0,191415
-0,123733
-0,150913
0,043513
-0,025749
-0,025980
-0,006784
-0,017606
-0,081060
0,030993
-0,060210
-0,090563
-0,045355
-0,019305
-0,091261
-0,007238
-0,198381
-0,201012
-0,196599
-0,179706
-0,042207
-0,169102
-0,101061
-0,064527
-0,128240
-0,119650
-0,065724
-0,120831
-0,073985
-0,083229
-0,062808
-0,067339
-0,133305
-0,123855
-0,035947
-0,202368
-0,169667
-0,169994
-0,181116
-0,187843
-0,201715
-0,128626
-0,164320
-0,101304
-0,146630
-0,143487
-0,068115
-0,085223
-0,028106
-0,087484
-0,018062
-0,049573
-0,124010
-0,039708
-0,156560
-0,136368
-0,086659
-0,160598
-0,160329
-0,114091
-0,196093
-0,235609
-0,155263
-0,214082
-0,079082
-0,080164
-0,103685
-0,114881
-0,058960
-0,107783
-0,095578
-0,125307
-0,106201
-0,108572
-0,173060
-0,133923
-0,171882
-0,321582
-0,214084
-0,261453
-0,174045
-0,178809
-0,284088
-0,194831
-0,285463
-0,067392
-0,163672
-0,111081
-0,193284
-0,222133
-0,028122
-0,076982
-0,136699
-0,168514
-0,190966
-0,185346
-0,153518
-0,292146
-0,226271
-0,221998
-0,261716
-0,099256
-0,233752
-0,167874
-0,151677
-0,109237
-0,167507
-0,165598
-0,190825
-0,149242
-0,153236
-0,140640
-0,052414
-0,204294
-0,161349
-0,223531
-0,213984
-0,182005
-0,216417
-0,257459
-0,172559
-0,139816
-0,287863
-0,249225
-0,134763
-0,238758
-0,272924
-0,149334
-0,097847
-0,163696
-0,139185
-0,121767
-0,148641
-0,045207
-0,129437
-0,230279
-0,184229
-0,244580
-0,189821
-0,254542
-0,127124
-0,094064
-0,114016
-0,062095
0,129303
0,093287
0,137801
0,259624
0,332300
0,318145
0,422150
0,423345
0,542845
0,609409
0,692548
0,667879
0,878304
0,844925
0,885049
0,955615
0,982531
1,142576
1,086530
1,156811
1,183446
1,203084
1,231407
1,175095
1,124726
1,083466
1,065085
1,039746
0,929906
0,826633
0,733292
0,673696
0,586091
0,440207
0,445902
0,343663
0,163132
0,196135
0,153797
0,147865
-0,028374
0,055348
-0,096401
-0,050370
0,001453
-0,086752
-0,142339
-0,178873
-0,190665
-0,179041
-0,275285
-0,266539
-0,260296
-0,266503
-0,275195
-0,227041
-0,336769
-0,302531
-0,271734
-0,304934
-0,255485
-0,211103
-0,146428
-0,175596
-0,175087
-0,190485
-0,107641
-0,234058
-0,110770
-0,105386
-0,195288
-0,218689
-0,262868
-0,214457
-0,306002
-0,172677
-0,302210
-0,118661
-0,235947
-0,218667
-0,165647
-0,173304
-0,210990
-0,204271
-0,095856
-0,118522
-0,056851
-0,111613
-0,114102
-0,183233
-0,171658
-0,280088
-0,207984
-0,223806
-0,086832
-0,222521
-0,267430
-0,152598
-0,220583
-0,226093
-0,272900
-0,229015
-0,104407
-0,101309
-0,077120
-0,059924
-0,104148
-0,096361
-0,299197
-0,192787
-0,274698
-0,131377
-0,243855
-0,145621
-0,379305
-0,249109
-0,238238
-0,196331
-0,229676
-0,197255
-0,154064
-0,240598
-0,060308
-0,158375
-0,124039
-0,099543
-0,122080
-0,118347
-0,183899
-0,226453
-0,230777
-0,239989
-0,133981
-0,219835
-0,234241
-0,270193
-0,232721
-0,137970
-0,245602
-0,198754
-0,207052
-0,088298
-0,088324
-0,139599
-0,148048
-0,071110
-0,084826
-0,025651
-0,094717
-0,163710
-0,243070
-0,167424
-0,142869
-0,222588
-0,277190
-0,233488
-0,267765
-0,172225
-0,214114
-0,149762
-0,118231
-0,100145
-0,135339
-0,136987
-0,155017
-0,132261
-0,054274
-0,218312
-0,154768
-0,086993
-0,059119
-0,189824
-0,158407
-0,078354
-0,208257
-0,207620
-0,157232
-0,181734
-0,111998
-0,142338
-0,216313
-0,157388
-0,094844
-0,178500
-0,062287
-0,066315
-0,110098
-0,015630
-0,073196
-0,090998
-0,069962
-0,174962
-0,121652
-0,162049
-0,195592
-0,205248
-0,145068
-0,175833
-0,115065
-0,052398
-0,085218
0,017250
-0,045083
-0,022590
-0,019242
-0,081448
-0,022660
-0,008714
0,085996
-0,062953
-0,047787
-0,044859
-0,083946
-0,099126
-0,092095
-0,215561
-0,179776
-0,107031
-0,098968
-0,057165
-0,047754
-0,108053
0,036307
-0,110587
0,088321
0,112036
0,035004
0,027769
0,082454
-0,050823
-0,056432
-0,094956
-0,035798
-0,076628
-0,090496
-0,135044
-0,076382
-0,009786
-0,050308
0,073510
0,074168
0,034952
0,084891
0,069198
0,027775
-0,027446
-0,009421
0,037617
-0,011075
0,077867
0,047145
0,055594
-0,061221
0,008071
-0,000722
0,022140
0,047276
0,108994
-0,042884
0,109983
-0,000793
0,065646
0,090891
-0,004062
0,163596
0,074592
0,187882
0,103799
0,133824
0,052775
0,134348
0,014046
0,077167
0,003640
-0,053826
-0,059693
-0,012534
0,040200
0,122063
0,082294
0,106458
0,152687
0,097936
0,163810
0,104778
0,106549
0,092182
0,038306
0,100985
0,080825
0,001298
0,117744
0,046220
0,131021
-0,039343
0,026995
0,026936
0,005162
0,012577
-0,006545
0,041583
0,111016
0,185676
0,046443
0,080946
0,125522
0,121043
0,179169
0,111472
0,073418
0,140601
0,046099
0,087507
0,039815
-0,011913
0,083743
-0,053260
0,031103
0,124504
0,049768
0,025085
0,074237
0,043457
0,080180
0,094835
0,096256
0,123162
0,102765
0,059156
0,023101
-0,084984
0,035518
-0,001072
-0,048529
-0,028934
-0,085027
-0,046179
0,011777
0,004909
-0,042795
0,003480
-0,034930
0,081221
-0,015476
0,055776
0,027427
0,105019
-0,001395
0,066357
0,030177
-0,060164
0,032543
-0,030908
-0,086664
-0,141516
-0,004292
-0,046501
-0,135206
-0,071504
-0,031315
-0,063719
-0,023827
-0,017273
0,032679
0,035940
-0,037393
-0,004589
-0,005366
-0,037373
0,002058
-0,078084
-0,099285
-0,027811
-0,214614
-0,169143
-0,077047
-0,124625
-0,081117
-0,092096
-0,074614
-0,008631
-0,004068
0,011161
-0,079980
-0,137088
-0,138823
-0,034883
-0,202302
-0,106824
-0,068961
-0,130218
-0,270790
-0,129351
-0,201413
-0,176057
-0,282702
-0,188631
-0,139070
-0,140297
-0,058825
-0,167622
-0,149900
-0,107489
-0,024055
-0,084515
-0,154803
-0,076305
-0,111711
-0,116794
-0,173888
-0,143635
-0,228374
-0,171103
-0,233314
-0,252524
-0,216288
-0,282229
-0,096117
-0,210139
-0,196996
-0,064954
-0,047822
-0,045982
-0,134224
-0,058649
-0,044691
-0,045312
-0,123119
-0,175712
-0,160119
-0,232211
-0,189774
-0,165926
-0,281410
-0,212103
-0,235914
-0,229081
-0,171510
-0,122176
-0,133242
-0,235304
-0,078615
-0,093698
-0,166411
-0,119127
-0,161265
-0,151333
-0,096065
-0,188639
-0,122766
-0,116148
-0,219414
-0,177742
-0,203665
-0,213001
-0,256713
-0,188332
-0,128623
-0,204124
-0,140771
-0,175374
-0,207039
-0,173046
-0,102441
-0,144513
-0,059531
-0,142015
-0,101691
-0,157350
-0,143672
-0,187051
-0,128994
-0,237767
-0,219277
-0,222816
-0,266781
-0,360298
-0,149396
-0,268672
-0,297590
-0,212058
-0,216560
-0,147089
-0,115003
-0,103816
-0,098461
-0,126091
-0,145704
-0,168627
-0,159721
-0,197507
-0,115638
-0,253764
-0,264495
-0,271365
-0,174105
-0,181032
-0,181644
-0,171980
-0,206304
-0,225052
-0,151133
-0,107211
-0,099925
-0,179954
-0,216130
-0,130383
-0,158015
-0,108241
-0,107421
-0,090690
-0,242037
-0,168896
-0,211371
-0,209577
-0,269619
-0,192571
-0,235813
-0,180346
-0,133956
-0,260479
-0,188052
-0,129739
-0,158566
-0,095125
-0,147883
-0,010946
-0,046253
-0,138147
-0,159523
-0,120398
-0,126055
-0,176787
-0,226545
-0,253938
-0,222912
-0,251050
-0,214832
-0,116360
-0,208530
-0,155172
-0,161094
-0,180354
-0,140654
-0,090974
-0,151685
-0,109619
-0,111761
-0,202798
-0,126685
-0,222476
-0,221393
-0,106227
-0,286124
-0,284054
-0,253101
-0,270509
-0,202932
-0,161497
-0,135020
-0,152561
-0,169153
-0,097739
-0,352079
-0,145103
-0,155498
-0,182615
-0,136774
-0,079344
-0,097983
-0,115071
-0,163162
-0,067157
-0,254737
-0,114129
-0,144552
-0,158917
-0,124700
-0,099417
-0,179989
-0,236946
-0,159283
-0,172234
-0,183109
-0,062746
-0,102675
-0,096438
-0,134829
-0,233650
-0,197539
-0,094576
-0,243729
-0,182739
-0,126896
-0,241165
-0,249880
-0,274777
-0,142840
-0,185723
-0,174832
-0,216095
-0,188860
-0,128281
-0,185482
-0,053729
-0,041181
-0,039269
-0,206002
0,006017
-0,092674
-0,160027
-0,183050
-0,105358
-0,253562
-0,152068
-0,277100
-0,199265
-0,192671
-0,140100
-0,235724
-0,219393
-0,086240
-0,082274
-0,164354
-0,039730
-0,179262
-0,140095
-0,125182
-0,175083
-0,177199
-0,190461
-0,073210
-0,145206
-0,226920
-0,193095
-0,214115
-0,199617
-0,164605
-0,211723
-0,203411
-0,133332
-0,137835
-0,135669
-0,163476
-0,218525
-0,079280
-0,046613
-0,105352
-0,120311
-0,121527
-0,107792
-0,277025
-0,122084
-0,244361
-0,177268
-0,233629
-0,188534
-0,189690
-0,232484
-0,232974
-0,155091
-0,125970
-0,120112
-0,154309
-0,182863
-0,163299
-0,150126
-0,091061
-0,132781
-0,176467
-0,228412
-0,119538
-0,231789
-0,178255
-0,169865
-0,182467
-0,108129
-0,189826
-0,177003
-0,114825
-0,215179
-0,097802
-0,110035
-0,213232
-0,112928
-0,128753
-0,130851
-0,072547
-0,168991
-0,186205
-0,158912
-0,222286
-0,097382
-0,195400
-0,232124
-0,204253
-0,169680
-0,289524
-0,184753
-0,223598
-0,133133
-0,215907
-0,128306
-0,057678
0,000366
-0,160329
-0,228761
-0,145831
-0,079798
-0,125724
-0,186801
-0,115071
-0,131202
-0,140015
-0,169941
-0,250721
-0,158103
-0,142184
-0,199969
-0,236912
-0,249883
-0,096418
-0,158467
-0,145358
-0,154767
-0,094871
-0,147442
-0,146165
-0,137472
-0,045659
-0,195327
-0,097440
-0,119434
-0,188284
-0,258237
-0,247672
-0,255010
-0,222990
-0,147785
-0,154812
-0,151079
-0,095347
-0,200639
-0,064640
-0,017936
-0,104619
-0,187766
-0,139778
-0,212547
-0,198386
-0,282754
-0,155631
-0,224626
-0,186956
-0,250773
-0,268999
-0,159055
-0,185439
-0,199308
-0,228697
-0,172743
-0,110627
-0,110875
-0,233870
-0,065884
-0,120477
-0,078981
-0,072406
-0,128577
-0,148853
-0,112757
-0,233021
-0,104419
-0,184039
-0,236724
-0,196558
-0,231370
-0,108771
-0,118818
-0,159159
