Signal
-0,163452
-0,147920
-0,133894
-0,122737
-0,115530
-0,112970
-0,115294
-0,122262
-0,133180
-0,146962
-0,162244
-0,177513
-0,191255
-0,202105
-0,208980
-0,211184
-0,208476
-0,201094
-0,189733
-0,175475
-0,159683
-0,143869
-0,129544
-0,118070
-0,110531
-0,107620
-0,109576
-0,116158
-0,126670
-0,140028
-0,154867
-0,169674
-0,182935
-0,193284
-0,199639
-0,201304
-0,198037
-0,190079
-0,178124
-0,163253
-0,146832
-0,130372
-0,115386
-0,103238
-0,095011
-0,091400
-0,092645
-0,098508
-0,108293
-0,120918
-0,135020
-0,149089
-0,161611
-0,171225
-0,176850
-0,177791
-0,173811
-0,165152
-0,152511
-0,136973
-0,119906
-0,102824
-0,087243
-0,074529
-0,065770
-0,061662
-0,062450
-0,067897
-0,077311
-0,089614
-0,103444
-0,117293
-0,129653
-0,139162
-0,144742
-0,145702
-0,141805
-0,133296
-0,120873
-0,105622
-0,088912
-0,072258
-0,057177
-0,045037
-0,036922
-0,033531
-0,035107
-0,041413
-0,051756
-0,065055
-0,079948
-0,094924
-0,108472
-0,119230
-0,126116
-0,128434
-0,125946
-0,118892
-0,107967
-0,094254
-0,079115
-0,064064
-0,050610
-0,040118
-0,033668
-0,031953
-0,035212
-0,043202
-0,055225
-0,070197
-0,086749
-0,103367
-0,118534
-0,130884
-0,139328
-0,143170
-0,142165
-0,136550
-0,127015
-0,114640
-0,100785
-0,086958
-0,074669
-0,065277
-0,059862
-0,059115
-0,063271
-0,072088
-0,084866
-0,100520
-0,117681
-0,134835
-0,150465
-0,163203
-0,171965
-0,176053
-0,175224
-0,169715
-0,160220
-0,147819
-0,133875
-0,119899
-0,107400
-0,097744
-0,092010
-0,090893
-0,094631
-0,102986
-0,115259
-0,130370
-0,146952
-0,163493
-0,178480
-0,190550
-0,198620
-0,201995
-0,200435
-0,194181
-0,183928
-0,170760
-0,156043
-0,141288
-0,128011
-0,117575
-0,111064
-0,109176
-0,112150
-0,119749
-0,131277
-0,145654
-0,161517
-0,177355
-0,191657
-0,203060
-0,210485
-0,213238
-0,211084
-0,204265
-0,193481
-0,179821
-0,164655
-0,149504
-0,135889
-0,125185
-0,118487
-0,116506
-0,119494
-0,127231
-0,139040
-0,153856
-0,170334
-0,186982
-0,202303
-0,214947
-0,223843
-0,228302
-0,228082
-0,223416
-0,214983
-0,203838
-0,191311
-0,178868
-0,167966
-0,159902
-0,155686
-0,155931
-0,160790
-0,169930
-0,182560
-0,197499
-0,213280
-0,228288
-0,240901
-0,249642
-0,253305
-0,251060
-0,242518
-0,227749
-0,207256
-0,181901
-0,152803
-0,121201
-0,088309
-0,055172
-0,022546
0,009203
0,040145
0,070799
0,102083
0,135225
0,171636
0,212755
0,259877
0,313991
0,375637
0,444789
0,520798
0,602370
0,687616
0,774146
0,859210
0,939876
1,013225
1,076551
1,127542
1,164439
1,186141
1,192270
1,183173
1,159864
1,123928
1,077373
1,022464
0,961541
0,896845
0,830368
0,763729
0,698096
0,634163
0,572164
0,511942
0,453041
0,394838
0,336676
0,277995
0,218455
0,158022
0,097024
0,036163
-0,023511
-0,080679
-0,133852
-0,181510
-0,222244
-0,254903
-0,278722
-0,293422
-0,299269
-0,297074
-0,288150
-0,274210
-0,257224
-0,239250
-0,222249
-0,207913
-0,197519
-0,191826
-0,191023
-0,194739
-0,202108
-0,211885
-0,222585
-0,232663
-0,240670
-0,245417
-0,246090
-0,242332
-0,234277
-0,222530
-0,208100
-0,192293
-0,176578
-0,162437
-0,151212
-0,143971
-0,141400
-0,143731
-0,150722
-0,161674
-0,175504
-0,190847
-0,206190
-0,220019
-0,230971
-0,237962
-0,240298
-0,237738
-0,230522
-0,219346
-0,205292
-0,189723
-0,174154
-0,160096
-0,148912
-0,141687
-0,139116
-0,141436
-0,148410
-0,159342
-0,173148
-0,188465
-0,203780
-0,217579
-0,228500
-0,235458
-0,237759
-0,235163
-0,227909
-0,216692
-0,202596
-0,186983
-0,171367
-0,157260
-0,146025
-0,138746
-0,136118
-0,138379
-0,145291
-0,156157
-0,169896
-0,185141
-0,200380
-0,214102
-0,224941
-0,231813
-0,234024
-0,231335
-0,223983
-0,212664
-0,198460
-0,182736
-0,167004
-0,152776
-0,141415
-0,134004
-0,131239
-0,133357
-0,140120
-0,150832
-0,164409
-0,179488
-0,194553
-0,208094
-0,218746
-0,225424
-0,227433
-0,224534
-0,216966
-0,205422
-0,190986
-0,175021
-0,159040
-0,144553
-0,132926
-0,125240
-0,122190
-0,124015
-0,130476
-0,140875
-0,154130
-0,168876
-0,183600
-0,196789
-0,207078
-0,213384
-0,215011
-0,211719
-0,203746
-0,191788
-0,176927
-0,160526
-0,144097
-0,129153
-0,117058
-0,108892
-0,105352
-0,106677
-0,112625
-0,122502
-0,135224
-0,149426
-0,163597
-0,176221
-0,185936
-0,191658
-0,192690
-0,188794
-0,180209
-0,167629
-0,152137
-0,135097
-0,118021
-0,102422
-0,089664
-0,080829
-0,076613
-0,077255
-0,082516
-0,091699
-0,103724
-0,117224
-0,130689
-0,142605
-0,151609
-0,156618
-0,156937
-0,152327
-0,143027
-0,129735
-0,113531
-0,095783
-0,078002
-0,061702
-0,048248
-0,038723
-0,033824
-0,033790
-0,038383
-0,046908
-0,058285
-0,071149
-0,083990
-0,095295
-0,103702
-0,108129
-0,107882
-0,102724
-0,092894
-0,079090
-0,062396
-0,044177
-0,025948
-0,009223
0,004632
0,014533
0,019783
0,020140
0,015843
0,007584
-0,003555
-0,016213
-0,028878
-0,040040
-0,048336
-0,052687
-0,052398
-0,047233
-0,037432
-0,023693
-0,007101
0,010977
0,029027
0,045535
0,059134
0,068739
0,073653
0,073634
0,068920
0,060203
0,048566
0,035369
0,022123
0,010340
0,001380
-0,003674
-0,004129
0,000251
0,009227
0,022100
0,037787
0,054921
0,071989
0,087476
0,100016
0,108526
0,112308
0,111123
0,105207
0,095256
0,082350
0,067853
0,053277
0,040134
0,029786
0,023316
0,021418
0,024331
0,031816
0,043176
0,057329
0,072910
0,088406
0,102305
0,113242
0,120134
0,122288
0,119462
0,111898
0,100291
0,085724
0,069561
0,053317
0,038505
0,026489
0,018353
0,014793
0,016050
0,021886
0,031607
0,044130
0,058094
0,071986
0,084296
0,093661
0,099001
0,099620
0,095282
0,086227
0,073153
0,057144
0,039567
0,021936
0,005764
-0,007580
-0,017014
-0,021838
-0,021813
-0,017174
-0,008617
0,002780
0,015654
0,028494
0,039790
0,048181
0,052584
0,052308
0,047114
0,037245
0,023398
0,006658
-0,011609
-0,029888
-0,046664
-0,060572
-0,070527
-0,075830
-0,076242
-0,071998
-0,063793
-0,052708
-0,040105
-0,027494
-0,016387
-0,008145
-0,003851
-0,004198
-0,009423
-0,019286
-0,033090
-0,049750
-0,067901
-0,086030
-0,102621
-0,116311
-0,126014
-0,131035
-0,131132
-0,126545
-0,117967
-0,106481
-0,093450
-0,080385
-0,068798
-0,060053
-0,055233
-0,055030
-0,059686
-0,068959
-0,082153
-0,098187
-0,115694
-0,133163
-0,149080
-0,162080
-0,171082
-0,175389
-0,174762
-0,169440
-0,160119
-0,147881
-0,134091
-0,120262
-0,107905
-0,098386
-0,092787
-0,091804
-0,095677
-0,104166
-0,116576
-0,131826
-0,148551
-0,165239
-0,180377
-0,192603
-0,200834
-0,204374
-0,202985
-0,196907
-0,186836
-0,173855
-0,159329
-0,144771
-0,131693
-0,121462
-0,115159
-0,113482
-0,116669
-0,124483
-0,136228
-0,150823
-0,166904
-0,182958
-0,197474
-0,209088
-0,216718
-0,219670
-0,217704
-0,211061
-0,200436
-0,186912
-0,171856
-0,156779
-0,143195
-0,132468
-0,125683
-0,123534
-0,126262
-0,133628
-0,144937
-0,159107
-0,174774
-0,190426
-0,204552
-0,215786
-0,223047
-0,225641
-0,223328
-0,216347
-0,205396
-0,191556
-0,176193
-0,160820
-0,146949
-0,135945
-0,128891
-0,126483
-0,128961
-0,136085
-0,147161
-0,161106
-0,176557
-0,192000
-0,205924
-0,216965
-0,224040
-0,226455
-0,223969
-0,216823
-0,205713
-0,191720
-0,176211
-0,160697
-0,146691
-0,135558
-0,128381
-0,125854
-0,128219
-0,135234
-0,146207
-0,160053
-0,175408
-0,190761
-0,204599
-0,215557
-0,222554
-0,224893
-0,222336
-0,215122
-0,203947
-0,189893
-0,174324
-0,158755
-0,144696
-0,133512
-0,126287
-0,123715
-0,126036
-0,133011
-0,143945
-0,157754
-0,173075
-0,188395
-0,202202
-0,213131
-0,220099
-0,222412
-0,219831
-0,212593
-0,201396
-0,187321
-0,171733
-0,156145
-0,142069
-0,130862
-0,123616
-0,121024
-0,123327
-0,130284
-0,141201
-0,154995
-0,170302
-0,185608
-0,199403
-0,210320
-0,217278
-0,219581
-0,216990
-0,209744
-0,198538
-0,184456
-0,168862
-0,153267
-0,139185
-0,127980
-0,120734
-0,118144
-0,120447
-0,127406
-0,138324
-0,152119
-0,167427
-0,182735
-0,196530
-0,207449
-0,214408
-0,216712
-0,214122
-0,206877
-0,195673
-0,181592
-0,165999
-0,150405
-0,136324
-0,125121
-0,117876
-0,115287
-0,117592
-0,124552
-0,135471
-0,149268
-0,164577
-0,179886
-0,193682
-0,204602
-0,211562
-0,213868
-0,211279
-0,204036
-0,192833
-0,178753
-0,163161
-0,147569
-0,133490
-0,122287
-0,115044
-0,112456
-0,114762
-0,121723
-0,132644
-0,146442
-0,161752
-0,177063
-0,190861
-0,201782
-0,208744
-0,211051
-0,208463
-0,201221
-0,190020
-0,175942
-0,160351
-0,144760
-0,130682
-0,119481
-0,112240
-0,109653
-0,111961
-0,118923
-0,129846
-0,143645
-0,158957
-0,174269
-0,188068
-0,198991
-0,205954
-0,208263
-0,205677
-0,198437
-0,187237
-0,173160
-0,157571
-0,141982
-0,127905
-0,116705
-0,109466
-0,106880
-0,109190
-0,116154
-0,127078
-0,140879
-0,156192
-0,171506
-0,185307
-0,196231
-0,203196
-0,205506
-0,202922
-0,195683
-0,184485
-0,170410
-0,154822
-0,139235
-0,125160
-0,113962
-0,106724
-0,104141
-0,106452
-0,113418
-0,124343
-0,138146
-0,153461
-0,168776
-0,182579
-0,193505
-0,200472
-0,202783
-0,200201
-0,192964
-0,181767
-0,167694
-0,152108
-0,136523
-0,122449
-0,111253
-0,104017
-0,101435
-0,103748
-0,110716
-0,121643
-0,135448
-0,150765
-0,166082
-0,179886
-0,190814
-0,197783
-0,200096
-0,197516
-0,190281
-0,179086
-0,165014
-0,149430
-0,133847
-0,119775
-0,108581
-0,101347
-0,098767
-0,101082
-0,108051
-0,118981
-0,132787
-0,148106
-0,163425
-0,177231
-0,188161
-0,195132
-0,197447
-0,194869
-0,187635
-0,176442
-0,162373
-0,146791
-0,131209
-0,117140
-0,105948
-0,098715
-0,096137
-0,098454
-0,105426
-0,116357
-0,130165
-0,145486
-0,160807
-0,174616
-0,185547
-0,192520
-0,194837
-0,192261
-0,185029
-0,173838
-0,159771
-0,144191
-0,128611
-0,114543
-0,103352
-0,096122
-0,093545
-0,095864
-0,102837
-0,113770
-0,127579
-0,142901
-0,158223
-0,172032
-0,182965
-0,189938
-0,192256
-0,189679
-0,182448
-0,171256
-0,157188
-0,141607
-0,126025
-0,111956
-0,100763
-0,093529
-0,090949
-0,093263
-0,100231
-0,111157
-0,124960
-0,140274
-0,155587
-0,169386
-0,180307
-0,187267
-0,189570
-0,186977
-0,179727
-0,168515
-0,154423
-0,138817
-0,123207
-0,109106
-0,097878
-0,090606
-0,087985
-0,090253
-0,097171
-0,108043
-0,121785
-0,137034
-0,152276
-0,165998
-0,176834
-0,183703
-0,185908
-0,183208
-0,175843
-0,164506
-0,150281
-0,134531
-0,118767
-0,104501
-0,093097
-0,085636
-0,082812
-0,084865
-0,091554
-0,102182
-0,115666
-0,130641
-0,145592
-0,159007
-0,169520
-0,176048
-0,177893
-0,174816
-0,167055
-0,155304
-0,140645
-0,124442
-0,108206
-0,093448
-0,081533
-0,073542
-0,070170
-0,071655
-0,077758
-0,087784
-0,100647
-0,114986
-0,129285
-0,142034
-0,151868
-0,157703
-0,158846
-0,155058
-0,146577
-0,134101
-0,118713
-0,101779
-0,084812
-0,069325
-0,056686
-0,047977
-0,043897
-0,044688
-0,050110
-0,059473
-0,071695
-0,085415
-0,099123
-0,111310
-0,120614
-0,125956
-0,126644
-0,122442
-0,113592
-0,100795
-0,085136
-0,067983
-0,050853
-0,035261
-0,022577
-0,013887
-0,009890
-0,010828
-0,016468
-0,026116
-0,038694
-0,052841
-0,067048
-0,079806
-0,089754
-0,095811
-0,097286
-0,093941
-0,086019
-0,074217
-0,059620
-0,043594
-0,027653
-0,013310
-0,001932
0,005399
0,007986
0,005590
-0,001550
-0,012738
-0,026891
-0,042643
-0,058482
-0,072893
-0,084511
-0,092250
-0,095414
-0,093761
-0,087528
-0,077406
-0,064478
-0,050102
-0,035790
-0,023049
-0,013241
-0,007446
-0,006353
-0,010200
-0,018743
-0,031283
-0,046733
-0,063725
-0,080742
-0,096268
-0,108936
-0,117657
-0,121734
-0,120923
-0,115460
-0,106036
-0,093732
-0,079908
-0,066074
-0,053738
-0,044263
-0,038728
-0,037827
-0,041796
-0,050393
-0,062922
-0,078297
-0,095153
-0,111975
-0,127250
-0,139611
-0,147976
-0,151648
-0,150386
-0,144430
-0,134475
-0,121602
-0,107176
-0,092710
-0,079715
-0,069558
-0,063319
-0,061696
-0,064928
-0,072776
-0,084545
-0,099155
-0,115240
-0,131289
-0,145792
-0,157384
-0,164983
-0,167897
-0,165885
-0,159189
-0,148506
-0,134920
-0,119796
-0,104648
-0,090992
-0,080193
-0,073338
-0,071123
-0,073794
-0,081113
-0,092393
-0,106555
-0,122244
-0,137956
-0,152189
-0,163590
-0,171092
-0,174013
-0,172132
-0,165705
-0,155449
-0,142463
-0,128132
-0,113986
-0,101551
-0,092203
-0,087033
-0,086734
-0,091540
-0,101195
-0,114980
-0,131776
-0,150175
-0,168609
-0,185502
-0,199415
-0,209185
-0,214030
-0,213619
-0,208095
-0,198055
-0,184481
-0,168633
-0,151916
-0,135730
-0,121318
-0,109629
-0,101211
-0,096137
-0,093975
-0,093817
-0,094335
-0,093894
-0,090687
-0,082884
-0,068794
-0,047005
-0,016508
0,023220
0,072169
0,129800
0,195090
0,266615
0,342664
0,421367
0,500837
0,579292
0,655165
0,727181
0,794402
0,856226
0,912357
0,962742
1,007484
1,046741
1,080635
1,109162
1,132130
1,149133
1,159549
1,162583
1,157339
1,142916
1,118527
1,083612
1,037945
0,981727
0,915634
0,840835
0,758964
0,672044
0,582376
0,492404
0,404549
0,321051
0,243819
0,174309
0,113437
0,061544
0,018405
-0,016708
-0,044919
-0,067623
-0,086328
-0,102504
-0,117451
-0,132179
-0,147341
-0,163191
-0,179595
-0,196074
-0,211880
-0,226096
-0,237744
-0,245907
-0,249829
-0,249014
-0,243296
-0,232874
-0,218326
-0,200575
-0,180833
-0,160504
-0,141072
-0,123970
-0,110458
-0,101499
-0,097673
-0,099111
-0,105481
-0,116012
-0,129562
-0,144721
-0,159945
-0,173699
-0,184601
-0,191560
-0,193873
-0,191297
-0,184069
-0,172883
-0,158821
-0,143246
-0,127671
-0,113608
-0,102422
-0,095194
-0,092620
-0,094940
-0,101914
-0,112847
-0,126656
-0,141976
-0,157295
-0,171100
-0,182028
-0,188994
-0,191305
-0,188719
-0,181477
-0,170274
-0,156193
-0,140597
-0,124999
-0,110911
-0,099698
-0,092443
-0,089839
-0,092128
-0,099068
-0,109965
-0,123736
-0,139016
-0,154293
-0,168054
-0,178934
-0,185851
-0,188109
-0,185468
-0,178168
-0,166904
-0,152757
-0,137093
-0,121424
-0,107261
-0,095969
-0,088631
-0,085941
-0,088138
-0,094984
-0,105781
-0,119447
-0,134618
-0,149781
-0,163423
-0,174178
-0,180965
-0,183087
-0,180305
-0,172857
-0,161439
-0,147132
-0,131302
-0,115459
-0,101116
-0,089637
-0,082104
-0,079212
-0,081200
-0,087827
-0,098399
-0,111832
-0,126762
-0,141674
-0,155056
-0,165544
-0,172053
-0,173889
-0,170811
-0,163059
-0,151326
-0,136695
-0,120530
-0,104343
-0,089645
-0,077801
-0,069893
-0,066615
-0,068206
-0,074427
-0,084581
-0,097586
-0,112075
-0,126537
-0,139459
-0,149474
-0,155501
-0,156844
-0,153261
-0,144994
-0,132735
-0,117568
-0,100856
-0,084112
-0,068848
-0,056427
-0,047932
-0,044057
-0,045043
-0,050649
-0,060180
-0,072552
-0,086402
-0,100216
-0,112482
-0,121835
-0,127193
-0,127859
-0,123596
-0,114642
-0,101692
-0,085830
-0,068419
-0,050973
-0,035004
-0,021876
-0,012674
-0,008091
-0,008369
-0,013268
-0,022094
-0,033763
-0,046913
-0,060032
-0,071607
-0,080276
-0,084955
-0,084951
-0,080025
-0,070418
-0,056825
-0,040331
-0,022301
-0,004248
0,012313
0,026018
0,035782
0,040909
0,041158
0,036766
0,028428
0,017225
0,004520
-0,008177
-0,019354
-0,027649
-0,031981
-0,031657
-0,026438
-0,016567
-0,002739
0,013959
0,032163
0,050356
0,067026
0,080806
0,090610
0,095742
0,095960
0,091501
0,083059
0,071714
0,058829
0,045914
0,034479
0,025886
0,021217
0,021163
0,025964
0,035377
0,048705
0,064863
0,082485
0,100056
0,116062
0,129136
0,138195
0,142541
0,141932
0,136607
0,127259
0,114969
0,101099
0,087162
0,074666
0,064977
0,059174
0,057953
0,061550
0,069726
0,081784
0,096640
0,112929
0,129138
0,143752
0,155409
0,163022
0,165898
0,163796
0,156954
0,146068
0,132221
0,116776
0,101247
0,087144
0,075833
0,068397
0,065532
0,067476
0,073991
0,084382
0,097568
0,112183
0,126717
0,139658
0,149642
0,155588
0,156802
0,153044
0,144556
0,132034
0,116563
0,099507
0,082381
0,066700
0,053828
0,044850
0,040463
0,040909
0,045949
0,054890
0,066652
0,079871
0,093038
0,104642
0,113320
0,117991
0,117964
0,112999
0,103339
0,089681
0,073110
0,054993
0,036843
0,020177
0,006359
-0,003524
-0,008776
-0,009155
-0,004897
0,003302
0,014364
0,026926
0,039477
0,050507
0,058654
0,062837
0,062362
0,056993
0,046970
0,032990
0,016139
-0,002218
-0,020566
-0,037391
-0,051328
-0,061291
-0,066584
-0,066966
-0,062675
-0,054405
-0,043236
-0,030533
-0,017806
-0,006566
0,001823
0,006280
0,006110
0,001076
-0,008582
-0,022169
-0,038601
-0,056511
-0,074388
-0,090718
-0,104135
-0,113557
-0,118288
-0,118088
-0,113195
-0,104304
-0,092499
-0,079143
-0,065747
-0,053826
-0,044741
-0,039577
-0,039028
-0,043334
-0,052255
-0,065097
-0,080775
-0,097927
-0,115039
-0,130599
-0,143244
-0,151891
-0,155844
-0,154865
-0,149193
-0,139524
-0,126940
-0,112808
-0,098639
-0,085947
-0,076096
-0,070170
-0,068863
-0,072417
-0,080593
-0,092695
-0,107641
-0,124068
-0,140463
-0,155315
-0,167260
-0,175216
-0,178488
-0,176837
-0,170504
-0,160183
-0,146959
-0,132197
-0,117409
-0,104109
-0,093661
-0,087150
-0,085270
-0,088261
-0,095886
-0,107450
-0,121869
-0,137781
-0,153673
-0,168033
-0,179499
-0,186987
-0,189803
-0,187707
-0,180941
-0,170199
-0,156565
-0,141404
-0,126229
-0,112552
-0,101739
-0,094873
-0,092649
-0,095308
-0,102609
-0,113860
-0,127976
-0,143595
-0,159203
-0,173290
-0,184491
-0,191723
-0,194292
-0,191959
-0,184963
-0,174000
-0,160153
-0,144787
-0,129414
-0,115548
-0,104552
-0,097510
-0,095118
-0,097615
-0,104761
-0,115863
-0,129836
-0,145318
-0,160796
-0,174757
-0,185838
-0,192956
-0,195415
-0,192977
-0,185882
-0,174823
-0,160886
-0,145433
-0,129978
-0,116033
-0,104962
-0,097849
-0,095389
-0,097822
-0,104908
-0,115951
-0,129870
-0,145300
-0,160729
-0,174644
-0,185681
-0,192757
-0,195178
-0,192703
-0,185572
-0,174481
-0,160513
-0,145031
-0,129549
-0,115578
-0,104484
-0,097349
-0,094869
-0,097282
-0,104349
-0,115376
-0,129280
-0,144695
-0,160111
-0,174007
-0,185027
-0,192087
-0,194493
-0,192004
-0,184861
-0,173759
-0,159780
-0,144289
-0,128798
-0,114820
-0,103719
-0,096578
-0,094092
-0,096501
-0,103564
-0,114588
-0,128488
-0,143902
-0,159315
-0,173216
-0,184241
-0,191306
-0,193717
-0,191234
-0,184096
-0,172999
-0,159025
-0,143539
-0,128054
-0,114081
-0,102985
-0,095849
-0,093368
-0,095781
-0,102850
-0,113878
-0,127784
-0,143202
-0,158621
-0,172527
-0,183557
-0,190627
-0,193043
-0,190565
-0,183432
-0,172340
-0,158371
-0,142890
-0,127409
-0,113441
-0,102350
-0,095219
-0,092743
-0,095162
-0,102236
-0,113269
-0,127180
-0,142603
-0,158027
-0,171938
-0,182973
-0,190048
-0,192469
-0,189996
-0,182868
-0,171781
-0,157817
-0,142341
-0,126865
-0,112902
-0,101816
-0,094690
-0,092219
-0,094643
-0,101721
-0,112760
-0,126675
-0,142103
-0,157532
-0,171448
-0,182488
-0,189568
-0,191994
-0,189526
-0,182403
-0,171320
-0,157362
-0,141891
-0,126420
-0,112462
-0,101381
-0,094259
-0,091793
-0,094222
-0,101305
-0,112349
-0,126269
-0,141702
-0,157136
-0,171057
-0,182101
-0,189186
-0,191617
-0,189154
-0,182036
-0,170958
-0,157004
-0,141538
-0,126072
-0,112119
-0,101043
-0,093926
-0,091465
-0,093898
-0,100987
-0,112035
-0,125960
-0,141398
-0,156836
-0,170762
-0,181812
-0,188902
-0,191337
-0,188879
-0,181765
-0,170693
-0,156744
-0,141282
-0,125821
-0,111873
-0,100801
-0,093690
-0,091233
-0,093671
-0,100764
-0,111817
-0,125747
-0,141190
-0,156633
-0,170564
-0,181618
-0,188713
-0,191153
-0,188699
-0,181591
-0,170523
-0,156578
-0,141122
-0,125665
-0,111722
-0,100655
-0,093548
-0,091096
-0,093539
-0,100637
-0,111695
-0,125629
-0,141077
-0,156524
-0,170460
-0,181519
-0,188618
-0,191063
-0,188614
-0,181510
-0,170447
-0,156507
-0,141055
-0,125604
-0,111665
-0,100603
-0,093500
-0,091053
-0,093501
-0,100603
-0,111665
-0,125605
-0,141057
-0,156509
-0,170449
-0,181513
-0,188617
-0,191066
-0,188622
-0,181522
-0,170464
-0,156529
-0,141081
-0,125634
-0,111699
-0,100642
-0,093544
-0,091102
-0,093553
-0,100660
-0,111727
-0,125671
-0,141127
-0,156584
-0,170528
-0,181595
-0,188703
-0,191157
-0,188716
-0,181621
-0,170566
-0,156634
-0,141190
-0,125746
-0,111815
-0,100760
-0,093665
-0,091225
-0,093679
-0,100788
-0,111856
-0,125801
-0,141259
-0,156715
-0,170659
-0,181726
-0,188833
-0,191285
-0,188841
-0,181742
-0,170683
-0,156745
-0,141295
-0,125843
-0,111902
-0,100837
-0,093729
-0,091275
-0,093713
-0,100804
-0,111851
-0,125773
-0,141204
-0,156632
-0,170545
-0,181576
-0,188644
-0,191052
-0,188561
-0,181409
-0,170293
-0,156293
-0,140773
-0,125247
-0,111225
-0,100071
-0,092867
-0,090309
-0,092634
-0,099603
-0,110519
-0,124299
-0,139578
-0,154843
-0,168580
-0,179424
-0,186291
-0,188485
-0,185765
-0,178371
-0,166996
-0,152722
-0,136912
-0,121078
-0,106731
-0,095235
-0,087671
-0,084733
-0,086661
-0,093212
-0,103692
-0,117016
-0,131820
-0,146589
-0,159811
-0,170121
-0,176434
-0,178056
-0,174746
-0,166743
-0,154743
-0,139827
-0,123359
-0,106853
-0,091821
-0,079628
-0,071356
-0,067701
-0,068903
-0,074725
-0,084471
-0,097060
-0,111128
-0,125166
-0,137661
-0,147251
-0,152856
-0,153783
-0,149794
-0,141130
-0,128491
-0,112962
-0,095909
-0,078848
-0,063296
-0,050619
-0,041904
-0,037849
-0,038699
-0,044216
-0,053710
-0,066102
-0,080030
-0,093988
-0,106465
-0,116102
-0,121820
-0,122927
-0,119188
-0,110846
-0,098600
-0,083536
-0,067021
-0,050573
-0,035705
-0,023787
-0,015902
-0,012749
-0,014570
-0,021128
-0,031729
-0,045291
-0,060453
-0,075702
-0,089528
-0,100566
-0,107734
-0,110337
-0,108136
-0,101368
-0,090729
-0,077301
-0,062446
-0,047676
-0,034500
-0,024283
-0,018103
-0,016654
-0,020172
-0,028416
-0,040687
-0,055898
-0,072683
-0,089525
-0,104908
-0,117464
-0,126106
-0,130136
-0,129309
-0,123862
-0,114485
-0,102258
-0,088541
-0,074842
-0,062670
-0,053385
-0,048067
-0,047407
-0,051641
-0,060525
-0,073363
-0,089066
-0,106269
-0,123455
-0,139109
-0,151865
-0,160637
-0,164728
-0,163896
-0,158379
-0,148869
-0,136449
-0,122482
-0,108477
-0,095948
-0,086257
-0,080486
-0,079330
-0,083028
-0,091340
-0,103571
-0,118638
-0,135177
-0,151675
-0,166620
-0,178648
-0,186678
-0,190013
-0,188417
-0,182128
-0,171843
-0,158645
-0,143900
-0,129122
-0,115823
-0,105369
-0,098845
-0,096946
-0,099914
-0,107511
-0,119042
-0,133427
-0,149304
-0,165162
-0,179492
-0,190932
-0,198405
-0,201219
-0,199141
-0,192417
-0,181751
-0,168235
-0,153245
-0,138306
-0,124945
-0,114543
-0,108201
-0,106633
-0,110097
-0,118375
-0,130788
-0,146272
-0,163474
-0,180893
-0,197020
-0,210486
-0,220197
-0,225439
-0,225940
-0,221901
-0,213964
-0,203152
-0,190758
-0,178216
-0,166953
-0,158242
-0,153069
-0,152031
-0,155265
-0,162428
-0,172716
-0,184935
-0,197600
-0,209068
-0,217683
-0,221916
-0,220501
-0,212531
-0,197528
-0,175466
-0,146747
-0,112136
-0,072668
-0,029520
0,016122
0,063189
0,110850
0,158588
0,206249
0,254044
0,302496
0,352362
0,404510
0,459776
0,518819
0,581980
0,649166
0,719771
0,792645
0,866108
0,938029
1,005937
1,067189
1,119146
1,159373
1,185822
1,196998
1,192081
1,171000
1,134450
1,083849
1,021236
0,949130
0,870343
0,787781
0,704240
0,622219
0,543764
0,470353
0,402838
0,341444
0,285821
0,235150
0,188288
0,143941
0,100837
0,057906
0,014417
-0,029914
-0,074872
-0,119755
-0,163433
-0,204473
-0,241293
-0,272341
-0,296281
-0,312155
-0,319508
-0,318462
-0,309729
-0,294564
-0,274660
-0,252000
-0,228682
-0,206737
-0,187953
-0,173728
-0,164965
-0,162008
-0,164636
-0,172109
-0,183256
-0,196598
-0,210503
-0,223341
-0,233643
-0,240237
-0,242358
-0,239710
-0,232492
-0,221370
-0,207406
-0,191952
-0,176511
-0,162590
-0,151550
-0,144471
-0,142049
-0,144520
-0,151647
-0,162732
-0,176694
-0,192168
-0,207641
-0,221601
-0,232683
-0,239805
-0,242271
-0,239841
-0,232756
-0,221710
-0,207786
-0,192348
-0,176909
-0,162980
-0,151927
-0,144832
-0,142390
-0,144840
-0,151943
-0,163004
-0,176939
-0,192384
-0,207827
-0,221755
-0,232803
-0,239889
-0,242316
-0,239846
-0,232718
-0,221627
-0,207655
-0,192167
-0,176674
-0,162690
-0,151578
-0,144421
-0,141913
-0,144295
-0,151326
-0,162310
-0,176166
-0,191528
-0,206883
-0,220719
-0,231671
-0,238655
-0,240978
-0,238397
-0,231154
-0,219942
-0,205844
-0,190225
-0,174595
-0,160468
-0,149206
-0,141894
-0,139224
-0,141438
-0,148293
-0,159096
-0,172762
-0,187927
-0,203078
-0,216701
-0,227433
-0,234190
-0,236276
-0,233450
-0,225953
-0,214479
-0,200110
-0,184210
-0,168290
-0,153863
-0,142293
-0,134661
-0,131663
-0,133537
-0,140044
-0,150486
-0,163782
-0,178567
-0,193326
-0,206548
-0,216867
-0,223200
-0,224851
-0,221580
-0,213626
-0,201684
-0,186835
-0,170445
-0,154025
-0,139086
-0,126993
-0,118827
-0,115285
-0,116604
-0,122545
-0,132412
-0,145123
-0,159311
-0,173466
-0,186073
-0,195768
-0,201468
-0,202477
-0,198557
-0,189945
-0,177338
-0,161818
-0,144749
-0,127644
-0,112015
-0,099226
-0,090360
-0,086113
-0,086725
-0,091955
-0,101109
-0,113105
-0,126577
-0,140016
-0,151907
-0,160888
-0,165876
-0,166176
-0,161550
-0,152238
-0,138935
-0,122725
-0,104974
-0,087194
-0,070899
-0,057454
-0,047944
-0,043064
-0,043055
-0,047679
-0,056242
-0,067661
-0,080575
-0,093473
-0,104842
-0,113320
-0,117826
-0,117667
-0,112604
-0,102878
-0,089187
-0,072615
-0,054529
-0,036441
-0,019867
-0,006174
0,003555
0,008623
0,008786
0,004284
-0,004191
-0,015557
-0,028454
-0,041369
-0,052794
-0,061365
-0,066002
-0,066013
-0,061158
-0,051681
-0,038279
-0,022036
-0,004319
0,013357
0,029479
0,042678
0,051872
0,056362
0,055907
0,050744
0,041567
0,029456
0,015775
0,002033
-0,010259
-0,019737
-0,025322
-0,026319
-0,022490
-0,014077
-0,001776
0,013329
0,029872
0,046339
0,061216
0,073139
0,081022
0,084171
0,082345
0,075781
0,065176
0,051610
0,036448
0,021202
0,007383
-0,003644
-0,010797
-0,013381
-0,011156
-0,004362
0,006306
0,019765
0,034652
0,049454
0,062659
0,072903
0,079105
0,080569
0,077057
0,068809
0,056521
0,041278
0,024444
0,007534
-0,007940
-0,020611
-0,029396
-0,033597
-0,032974
-0,027765
-0,018663
-0,006749
0,006614
0,019914
0,031643
0,040437
0,045215
0,045284
0,040406
0,030824
0,017234
0,000721
-0,017349
-0,035460
-0,052098
-0,065897
-0,075772
-0,081025
-0,081415
-0,077178
-0,069009
-0,057987
-0,045475
-0,032983
-0,022021
-0,013952
-0,009856
-0,010426
-0,015899
-0,026035
-0,040136
-0,057116
-0,075610
-0,094104
-0,111082
-0,125179
-0,135310
-0,140777
-0,141341
-0,137238
-0,129162
-0,118194
-0,105696
-0,093181
-0,082159
-0,073992
-0,069762
-0,070164
-0,075434
-0,085334
-0,099165
-0,115844
-0,134007
-0,152138
-0,168726
-0,182404
-0,192089
-0,197085
-0,197152
-0,192528
-0,183909
-0,172375
-0,159292
-0,146172
-0,134525
-0,125716
-0,120828
-0,120556
-0,125138
-0,134336
-0,147453
-0,163407
-0,180833
-0,198219
-0,214053
-0,226970
-0,235888
-0,240110
-0,239399
-0,233994
-0,224590
-0,212270
-0,198399
-0,184490
-0,172055
-0,162459
-0,156786
-0,155730
-0,159533
-0,167955
-0,180300
-0,195488
-0,212153
-0,228785
-0,243871
-0,256047
-0,264231
-0,267729
-0,266301
-0,260188
-0,250085
-0,237076
-0,222526
-0,207948
-0,194855
-0,184612
-0,178302
-0,176621
-0,179809
-0,187628
-0,199382
-0,213990
-0,230088
-0,246164
-0,260706
-0,272350
-0,280014
-0,283004
-0,281081
-0,274484
-0,263909
-0,250440
-0,235442
-0,220427
-0,206909
-0,196253
-0,189541
-0,187470
-0,190279
-0,197729
-0,209127
-0,223388
-0,239150
-0,254901
-0,269127
-0,280466
-0,287836
-0,290540
-0,288341
-0,281477
-0,270645
-0,256928
-0,241690
-0,226444
-0,212703
-0,201832
-0,194913
-0,192643
-0,195261
-0,202527
-0,213748
-0,227839
-0,243438
-0,259031
-0,273108
-0,284303
-0,291533
-0,294105
-0,291779
-0,284794
-0,273846
-0,260017
-0,244673
-0,229325
-0,215487
-0,204523
-0,197516
-0,195162
-0,197699
-0,204888
-0,216036
-0,230058
-0,245590
-0,261120
-0,275137
-0,286275
-0,293452
-0,295972
-0,293597
-0,286565
-0,275573
-0,261703
-0,246319
-0,230934
-0,217061
-0,206064
-0,199025
-0,196640
-0,199149
-0,206312
-0,217434
-0,231433
-0,246943
-0,262452
-0,276449
-0,287568
-0,294727
-0,297225
-0,294828
-0,287776
-0,276765
-0,262877
-0,247477
-0,232076
-0,218189
-0,207178
-0,200126
-0,197730
-0,200228
-0,207381
-0,218493
-0,232483
-0,247984
-0,263486
-0,277476
-0,288589
-0,295742
-0,298240
-0,295844
-0,288793
-0,277783
-0,263896
-0,248497
-0,233097
-0,219211
-0,208200
-0,201150
-0,198755
-0,201253
-0,208407
-0,219520
-0,233511
-0,249013
-0,264516
-0,278506
-0,289620
-0,296774
-0,299273
-0,296878
-0,289828
-0,278818
-0,264932
-0,249534
-0,234135
-0,220249
-0,209239
-0,202190
-0,199795
-0,202295
-0,209449
-0,220563
-0,234554
-0,250057
-0,265561
-0,279552
-0,290666
-0,297820
-0,300320
-0,297926
-0,290876
-0,279868
-0,265982
-0,250584
-0,235186
-0,221300
-0,210292
-0,203243
-0,200848
-0,203348
-0,210503
-0,221618
-0,235609
-0,251113
-0,266617
-0,280609
-0,291723
-0,298879
-0,301379
-0,298985
-0,291936
-0,280928
-0,267043
-0,251645
-0,236247
-0,222362
-0,211354
-0,204305
-0,201912
-0,204412
-0,211567
-0,222682
-0,236674
-0,252178
-0,267683
-0,281675
-0,292790
-0,299945
-0,302446
-0,300052
-0,293004
-0,281996
-0,268111
-0,252714
-0,237316
-0,223431
-0,212424
-0,205375
-0,202982
-0,205482
-0,212638
-0,223753
-0,237745
-0,253250
-0,268754
-0,282746
-0,293862
-0,301017
-0,303518
-0,301125
-0,294077
-0,283069
-0,269184
-0,253787
-0,238390
-0,224505
-0,213497
-0,206449
-0,204056
-0,206557
-0,213712
-0,224828
-0,238820
-0,254324
-0,269829
-0,283821
-0,294937
-0,302092
-0,304593
-0,302200
-0,295152
-0,284144
-0,270259
-0,254862
-0,239465
-0,225580
-0,214573
-0,207524
-0,205131
-0,207632
-0,214787
-0,225903
-0,239895
-0,255400
-0,270904
-0,284896
-0,296011
-0,303167
-0,305668
-0,303274
-0,296226
-0,285218
-0,271333
-0,255936
-0,240539
-0,226654
-0,215646
-0,208598
-0,206204
-0,208705
-0,215861
-0,226976
-0,240968
-0,256472
-0,271976
-0,285968
-0,297083
-0,304239
-0,306739
-0,304346
-0,297297
-0,286289
-0,272404
-0,257006
-0,241609
-0,227723
-0,216715
-0,209666
-0,207272
-0,209773
-0,216928
-0,228042
-0,242034
-0,257538
-0,273041
-0,287033
-0,298147
-0,305302
-0,307801
-0,305407
-0,298357
-0,287348
-0,273462
-0,258063
-0,242664
-0,228777
-0,217767
-0,210716
-0,208320
-0,210818
-0,217970
-0,229082
-0,243070
-0,258570
-0,274070
-0,288057
-0,299166
-0,306315
-0,308808
-0,306407
-0,299350
-0,288332
-0,274436
-0,259027
-0,243616
-0,229717
-0,218692
-0,211626
-0,209212
-0,211691
-0,218822
-0,229911
-0,243873
-0,259346
-0,274814
-0,288767
-0,299839
-0,306948
-0,309397
-0,306947
-0,299837
-0,288761
-0,274803
-0,259325
-0,243841
-0,229861
-0,218750
-0,211589
-0,209074
-0,211443
-0,218456
-0,229417
-0,243243
-0,258568
-0,273879
-0,287663
-0,298555
-0,305470
-0,307713
-0,305044
-0,297701
-0,286377
-0,272156
-0,256399
-0,240620
-0,226328
-0,214888
-0,207381
-0,204501
-0,206487
-0,213099
-0,223639
-0,237024
-0,251890
-0,266722
-0,280008
-0,290381
-0,296760
-0,298447
-0,295202
-0,287266
-0,275331
-0,260481
-0,244081
-0,227641
-0,212675
-0,200547
-0,192340
-0,188750
-0,190016
-0,195900
-0,205707
-0,218356
-0,232483
-0,246578
-0,259128
-0,268771
-0,274426
-0,275401
-0,271456
-0,262835
-0,250235
-0,234741
-0,217721
-0,200689
-0,185161
-0,172505
-0,163806
-0,159764
-0,160621
-0,166142
-0,175634
-0,188020
-0,201937
-0,215879
-0,228335
-0,237946
-0,243633
-0,244705
-0,240925
-0,232538
-0,220241
-0,205122
-0,188548
-0,172036
-0,157101
-0,145110
-0,137149
-0,133917
-0,135655
-0,142127
-0,152638
-0,166109
-0,181177
-0,196331
-0,210059
-0,220998
-0,228066
-0,230569
-0,228266
-0,221398
-0,210658
-0,197130
-0,182176
-0,167309
-0,154038
-0,143726
-0,137455
-0,135917
-0,139350
-0,147510
-0,159702
-0,174837
-0,191550
-0,208324
-0,223643
-0,236140
-0,244727
-0,248707
-0,247835
-0,242347
-0,232935
-0,220677
-0,206934
-0,193214
-0,181025
-0,171729
-0,166404
-0,165742
-0,169978
-0,178869
-0,191717
-0,207436
-0,224657
-0,241866
-0,257547
-0,270332
-0,279137
-0,283264
-0,282470
-0,276994
-0,267528
-0,255153
-0,241233
-0,227277
-0,214798
-0,205158
-0,199440
-0,198337
-0,202089
-0,210455
-0,222740
-0,237861
-0,254453
-0,271005
-0,286003
-0,298083
-0,306164
-0,309550
-0,308003
-0,301762
-0,291524
-0,278371
-0,263670
-0,248934
-0,235676
-0,225262
-0,218774
-0,216911
-0,219912
-0,227539
-0,239098
-0,253509
-0,269408
-0,285285
-0,299629
-0,311079
-0,318556
-0,321367
-0,319277
-0,312531
-0,301831
-0,288267
-0,273211
-0,258188
-0,244721
-0,234188
-0,227689
-0,225934
-0,229182
-0,237212
-0,249349
-0,264528
-0,281404
-0,298479
-0,314252
-0,327366
-0,336739
-0,341668
-0,341900
-0,337648
-0,329574
-0,318715
-0,306381
-0,294018
-0,283066
-0,274807
-0,270237
-0,269958
-0,274112
-0,282361
-0,293907
-0,307563
-0,321855
-0,335156
-0,345831
-0,352382
-0,353574
-0,348543
-0,336857
-0,318534
-0,294022
-0,264130
-0,229920
-0,192586
-0,153306
-0,113114
-0,072778
-0,032712
0,007071
0,046958
0,087693
0,130282
0,175870
0,225588
0,280394
0,340924
0,407353
0,479309
0,555819
0,635317
0,715707
0,794471
0,868825
0,935908
0,992974
1,037599
1,067849
1,082427
1,080766
1,063066
1,030273
0,984000
0,926398
0,859991
0,787481
0,711555
0,634696
0,559025
0,486176
0,417226
0,352676
0,292489
0,236167
0,182881
0,131617
0,081338
0,031146
-0,019584
-0,071094
-0,123184
-0,175201
-0,226082
-0,274445
-0,318726
-0,357341
-0,388859
-0,412170
-0,426625
-0,432130
-0,429186
-0,418870
-0,402755
-0,382773
-0,361047
-0,339701
-0,320674
-0,305547
-0,295419
-0,290826
-0,291716
-0,297481
-0,307047
-0,318997
-0,331725
-0,343604
-0,353148
-0,359161
-0,360846
-0,357877
-0,350425
-0,339132
-0,325043
-0,309493
-0,293976
-0,279992
-0,268897
-0,261768
-0,259298
-0,261723
-0,268804
-0,279845
-0,293762
-0,309190
-0,324618
-0,338532
-0,349569
-0,356645
-0,359065
-0,356590
-0,349458
-0,338366
-0,324396
-0,308911
-0,293426
-0,279451
-0,268351
-0,261209
-0,258720
-0,261124
-0,268180
-0,279194
-0,293082
-0,308480
-0,323876
-0,337757
-0,348758
-0,355797
-0,358178
-0,355661
-0,348487
-0,337349
-0,323331
-0,307796
-0,292257
-0,278227
-0,267069
-0,259866
-0,257313
-0,259650
-0,266636
-0,277576
-0,291387
-0,306705
-0,322016
-0,335809
-0,346717
-0,353660
-0,355939
-0,353317
-0,346033
-0,334780
-0,320642
-0,304982
-0,289313
-0,275147
-0,263847
-0,256497
-0,253791
-0,255967
-0,262787
-0,273555
-0,287187
-0,302318
-0,317436
-0,331028
-0,341728
-0,348455
-0,350511
-0,347657
-0,340132
-0,328631
-0,314236
-0,298310
-0,282367
-0,267917
-0,256324
-0,248671
-0,245653
-0,247508
-0,253996
-0,264422
-0,277701
-0,292471
-0,307216
-0,320425
-0,330732
-0,337054
-0,338695
-0,335415
-0,327453
-0,315504
-0,300650
-0,284255
-0,267831
-0,252889
-0,240794
-0,232628
-0,229085
-0,230405
-0,236347
-0,246217
-0,258930
-0,273123
-0,287281
-0,299893
-0,309593
-0,315299
-0,316316
-0,312402
-0,303798
-0,291198
-0,275685
-0,258624
-0,241526
-0,225905
-0,213123
-0,204265
-0,200025
-0,200643
-0,205879
-0,215039
-0,227039
-0,240516
-0,253958
-0,265851
-0,274833
-0,279821
-0,280120
-0,275491
-0,266174
-0,252865
-0,236647
-0,218885
-0,201094
-0,184784
-0,171323
-0,161794
-0,156893
-0,156860
-0,161456
-0,169989
-0,181376
-0,194253
-0,207111
-0,218437
-0,226869
-0,231325
-0,231111
-0,225990
-0,216203
-0,202445
-0,185803
-0,167641
-0,149474
-0,132817
-0,119034
-0,109212
-0,104047
-0,103780
-0,108174
-0,116535
-0,127783
-0,140556
-0,153343
-0,164633
-0,173065
-0,177557
-0,177417
-0,172406
-0,162768
-0,149199
-0,132783
-0,114888
-0,097029
-0,080718
-0,067324
-0,057931
-0,053236
-0,053480
-0,058427
-0,067383
-0,079268
-0,092718
-0,106224
-0,118274
-0,127506
-0,132840
-0,133582
-0,129493
-0,120816
-0,108247
-0,092870
-0,076051
-0,059304
-0,044143
-0,031933
-0,023759
-0,020317
-0,021847
-0,028111
-0,038415
-0,051677
-0,066533
-0,081471
-0,094981
-0,105697
-0,112537
-0,114807
-0,112268
-0,105159
-0,094176
-0,080400
-0,065198
-0,050081
-0,036561
-0,026002
-0,019487
-0,017710
-0,020911
-0,028849
-0,040829
-0,055766
-0,072296
-0,088905
-0,104080
-0,116455
-0,124947
-0,128858
-0,127948
-0,122455
-0,113074
-0,100884
-0,087250
-0,073681
-0,061689
-0,052636
-0,047603
-0,047284
-0,051916
-0,061258
-0,074613
-0,090895
-0,108739
-0,126630
-0,143054
-0,156644
-0,166314
-0,171369
-0,171566
-0,167142
-0,158790
-0,147592
-0,134909
-0,122252
-0,111130
-0,102906
-0,098661
-0,099088
-0,104424
-0,114428
-0,128401
-0,145260
-0,163637
-0,182020
-0,198892
-0,212887
-0,222921
-0,228298
-0,228774
-0,224589
-0,216435
-0,205394
-0,192827
-0,180247
-0,169164
-0,160940
-0,156658
-0,157009
-0,162234
-0,172091
-0,185882
-0,202526
-0,220655
-0,238756
-0,255315
-0,268968
-0,278630
-0,283605
-0,283654
-0,279013
-0,270379
-0,258833
-0,245738
-0,232607
-0,220951
-0,212134
-0,207239
-0,206961
-0,211538
-0,220730
-0,233843
-0,249793
-0,267215
-0,284598
-0,300428
-0,313341
-0,322254
-0,326472
-0,325756
-0,320345
-0,310935
-0,298608
-0,284729
-0,270811
-0,258366
-0,248760
-0,243074
-0,242006
-0,245794
-0,254200
-0,266528
-0,281697
-0,298342
-0,314952
-0,330014
-0,342165
-0,350323
-0,353792
-0,352334
-0,346189
-0,336052
-0,323008
-0,308420
-0,293802
-0,280668
-0,270381
-0,264026
-0,262298
-0,265437
-0,273205
-0,284906
-0,299460
-0,315501
-0,331518
-0,345999
-0,357581
-0,365181
-0,368105
-0,366113
-0,359446
-0,348800
-0,335257
-0,320184
-0,305092
-0,291496
-0,280758
-0,273965
-0,271809
-0,274533
-0,281897
-0,293205
-0,307377
-0,323047
-0,338704
-0,352836
-0,364079
-0,371351
-0,373957
-0,371657
-0,364692
-0,353757
-0,339936
-0,324592
-0,309240
-0,295392
-0,284411
-0,277383
-0,275002
-0,277507
-0,284661
-0,295767
-0,309743
-0,325226
-0,340702
-0,354661
-0,365737
-0,372848
-0,375300
-0,372852
-0,365745
-0,354674
-0,340722
-0,325253
-0,309781
-0,295817
-0,284727
-0,277593
-0,275111
-0,277520
-0,284581
-0,295599
-0,309491
-0,324893
-0,340293
-0,354178
-0,365184
-0,372229
-0,374617
-0,372108
-0,364943
-0,353817
-0,339812
-0,324294
-0,308774
-0,294765
-0,283632
-0,276457
-0,273935
-0,276307
-0,283333
-0,294317
-0,308178
-0,323549
-0,338920
-0,352778
-0,363758
-0,370778
-0,373142
-0,370611
-0,363425
-0,352279
-0,338249
-0,322707
-0,307164
-0,293134
-0,281980
-0,274786
-0,272247
-0,274602
-0,281611
-0,292580
-0,306426
-0,321784
-0,337142
-0,350988
-0,361956
-0,368965
-0,371319
-0,368778
-0,361582
-0,350427
-0,336395
-0,320850
-0,305305
-0,291272
-0,280117
-0,272920
-0,270378
-0,272731
-0,279738
-0,290705
-0,304548
-0,319904
-0,335260
-0,349103
-0,360069
-0,367075
-0,369427
-0,366884
-0,359686
-0,348528
-0,334493
-0,318946
-0,303399
-0,289364
-0,278206
-0,271007
-0,268463
-0,270813
-0,277818
-0,288782
-0,302623
-0,317977
-0,333330
-0,347171
-0,358135
-0,365139
-0,367488
-0,364942
-0,357742
-0,346582
-0,332545
-0,316995
-0,301446
-0,287409
-0,276248
-0,269047
-0,266500
-0,268848
-0,275851
-0,286813
-0,300651
-0,316002
-0,331353
-0,345191
-0,356153
-0,363155
-0,365501
-0,362953
-0,355751
-0,344588
-0,330549
-0,314997
-0,299445
-0,285406
-0,274243
-0,267039
-0,264490
-0,266836
-0,273836
-0,284795
-0,298632
-0,313980
-0,329329
-0,343165
-0,354124
-0,361123
-0,363467
-0,360917
-0,353712
-0,342547
-0,328506
-0,312951
-0,297397
-0,283355
-0,272190
-0,264984
-0,262433
-0,264776
-0,271773
-0,282731
-0,296565
-0,311911
-0,327257
-0,341091
-0,352047
-0,359044
-0,361386
-0,358834
-0,351626
-0,340459
-0,326415
-0,310858
-0,295301
-0,281257
-0,270089
-0,262881
-0,260328
-0,262668
-0,269664
-0,280618
-0,294450
-0,309794
-0,325138
-0,338969
-0,349923
-0,356918
-0,359257
-0,356702
-0,349493
-0,338323
-0,324277
-0,308718
-0,293158
-0,279112
-0,267942
-0,260731
-0,258175
-0,260513
-0,267506
-0,278459
-0,292288
-0,307630
-0,322971
-0,336800
-0,347752
-0,354744
-0,357081
-0,354524
-0,347312
-0,336140
-0,322091
-0,306530
-0,290968
-0,276919
-0,265747
-0,258534
-0,255975
-0,258311
-0,265302
-0,276252
-0,290079
-0,305418
-0,320757
-0,334584
-0,345533
-0,352523
-0,354858
-0,352298
-0,345084
-0,333910
-0,319858
-0,304295
-0,288731
-0,274679
-0,263504
-0,256289
-0,253728
-0,256062
-0,263050
-0,273998
-0,287822
-0,303159
-0,318495
-0,332319
-0,343266
-0,350254
-0,352586
-0,350024
-0,342807
-0,331630
-0,317576
-0,302009
-0,286442
-0,272388
-0,261210
-0,253991
-0,251427
-0,253757
-0,260742
-0,271685
-0,285506
-0,300838
-0,316170
-0,329989
-0,340931
-0,347913
-0,350239
-0,347670
-0,340446
-0,329262
-0,315200
-0,299625
-0,284048
-0,269983
-0,258794
-0,251563
-0,248986
-0,251301
-0,258270
-0,269196
-0,282997
-0,298309
-0,313618
-0,327412
-0,338326
-0,345278
-0,347572
-0,344968
-0,337705
-0,326478
-0,312370
-0,296745
-0,281114
-0,266990
-0,255736
-0,248436
-0,245783
-0,248016
-0,254897
-0,265728
-0,279427
-0,294629
-0,309819
-0,323487
-0,334265
-0,341071
-0,343209
-0,340438
-0,332997
-0,321581
-0,307271
-0,291431
-0,275572
-0,261206
-0,249696
-0,242125
-0,239186
-0,241117
-0,247679
-0,258175
-0,271522
-0,286353
-0,301156
-0,314417
-0,324771
-0,331134
-0,332810
-0,329559
-0,321619
-0,309685
-0,294839
-0,278444
-0,262013
-0,247058
-0,234942
-0,226748
-0,223171
-0,224450
-0,230346
-0,240163
-0,252820
-0,266951
-0,281046
-0,293592
-0,303226
-0,308865
-0,309816
-0,305840
-0,297179
-0,284528
-0,268972
-0,251878
-0,234760
-0,219132
-0,206362
-0,197533
-0,193345
-0,194040
-0,199379
-0,208673
-0,220840
-0,234520
-0,248203
-0,260381
-0,269692
-0,275058
-0,275786
-0,271642
-0,262867
-0,250162
-0,234612
-0,217587
-0,200601
-0,185171
-0,172665
-0,164169
-0,160382
-0,161547
-0,167428
-0,177333
-0,190181
-0,204611
-0,219113
-0,232178
-0,242443
-0,248827
-0,250638
-0,247637
-0,240065
-0,228619
-0,214381
-0,198719
-0,183143
-0,169166
-0,158154
-0,151188
-0,148963
-0,151718
-0,159212
-0,170748
-0,185242
-0,201328
-0,217491
-0,232217
-0,244139
-0,252171
-0,255616
-0,254230
-0,248251
-0,238370
-0,225667
-0,211502
-0,197385
-0,184824
-0,175180
-0,169532
-0,168571
-0,172533
-0,181175
-0,193798
-0,209315
-0,226358
-0,243411
-0,258958
-0,271632
-0,280345
-0,284400
-0,283554
-0,278042
-0,268559
-0,256182
-0,242275
-0,228347
-0,215908
-0,206321
-0,200665
-0,199635
-0,203468
-0,211923
-0,224304
-0,239526
-0,256224
-0,272884
-0,287994
-0,300188
-0,308383
-0,311883
-0,310449
-0,304320
-0,294191
-0,281145
-0,266547
-0,251909
-0,238745
-0,228419
-0,222014
-0,220227
-0,223298
-0,230987
-0,242601
-0,257058
-0,272994
-0,288898
-0,303258
-0,314712
-0,322177
-0,324960
-0,322822
-0,316005
-0,305205
-0,291508
-0,276279
-0,261033
-0,247287
-0,236409
-0,229484
-0,227214
-0,229844
-0,237143
-0,248423
-0,262612
-0,278357
-0,294159
-0,308521
-0,320094
-0,327812
-0,331000
-0,329436
-0,323377
-0,313537
-0,301014
-0,287182
-0,273563
-0,261670
-0,252863
-0,248213
-0,248392
-0,253611
-0,263589
-0,277581
-0,294446
-0,312751
-0,330908
-0,347324
-0,360547
-0,369402
-0,373102
-0,371308
-0,364163
-0,352259
-0,336573
-0,318355
-0,298998
-0,279879
-0,262212
-0,246910
-0,234475
-0,224929
-0,217788
-0,212086
-0,206447
-0,199197
-0,188505
-0,172543
-0,149648
-0,118473
-0,078113
-0,028195
0,031080
0,098939
0,174086
0,254790
0,339014
0,424552
0,509182
0,590812
0,667598
0,738044
0,801054
0,855951
0,902453
0,940612
0,970731
0,993260
1,008688
1,017447
1,019834
1,015955
1,005711
0,988812
0,964835
0,933296
0,893751
0,845901
0,789693
0,725405
0,653698
0,575641
0,492691
0,406633
0,319489
0,233391
0,150445
0,072586
0,001449
-0,061739
-0,116237
-0,161821
-0,198770
-0,227819
-0,250061
-0,266842
-0,279619
-0,289837
-0,298798
-0,307562
-0,316872
-0,327107
-0,338279
-0,350056
-0,361819
-0,372745
-0,381903
-0,388370
-0,391337
-0,390213
-0,384706
-0,374881
-0,361177
-0,344398
-0,325651
-0,306265
-0,287672
-0,271280
-0,258337
-0,249815
-0,246304
-0,247957
-0,254461
-0,265062
-0,278636
-0,293787
-0,308978
-0,322683
-0,333527
-0,340421
-0,342666
-0,340019
-0,332718
-0,321458
-0,307321
-0,291671
-0,276021
-0,261882
-0,250619
-0,243315
-0,240665
-0,242908
-0,249805
-0,260660
-0,274391
-0,289633
-0,304874
-0,318601
-0,329449
-0,336337
-0,338568
-0,335903
-0,328581
-0,317298
-0,303136
-0,287459
-0,271780
-0,257611
-0,246317
-0,238980
-0,236294
-0,238501
-0,245359
-0,256173
-0,269861
-0,285058
-0,300251
-0,313929
-0,324725
-0,331558
-0,333731
-0,331006
-0,323621
-0,312271
-0,298040
-0,282291
-0,266536
-0,252287
-0,240910
-0,233485
-0,230709
-0,232820
-0,239579
-0,250289
-0,263869
-0,278953
-0,294029
-0,307584
-0,318252
-0,324952
-0,326986
-0,324117
-0,316582
-0,305076
-0,290683
-0,274765
-0,258835
-0,244405
-0,232839
-0,225219
-0,222240
-0,224141
-0,230682
-0,241168
-0,254515
-0,269358
-0,284184
-0,297481
-0,307883
-0,314307
-0,316058
-0,312896
-0,305059
-0,293242
-0,278528
-0,262280
-0,246010
-0,231230
-0,219305
-0,211315
-0,207956
-0,209467
-0,215608
-0,225683
-0,238609
-0,253020
-0,267405
-0,280249
-0,290189
-0,296140
-0,297407
-0,293750
-0,285409
-0,273077
-0,257837
-0,241054
-0,224238
-0,208903
-0,196412
-0,187848
-0,183905
-0,184823
-0,190361
-0,199825
-0,212131
-0,225915
-0,239664
-0,251865
-0,261155
-0,266449
-0,267053
-0,262726
-0,253710
-0,240698
-0,224774
-0,207302
-0,189794
-0,173764
-0,160576
-0,151312
-0,146669
-0,146886
-0,151723
-0,160487
-0,172095
-0,185183
-0,198239
-0,209751
-0,218355
-0,222970
-0,222901
-0,217908
-0,208234
-0,194572
-0,178008
-0,159907
-0,141782
-0,125146
-0,111365
-0,101524
-0,096317
-0,095987
-0,100295
-0,108547
-0,119662
-0,132277
-0,144880
-0,155962
-0,164158
-0,168388
-0,167959
-0,162632
-0,152649
-0,138707
-0,121890
-0,103565
-0,085245
-0,068445
-0,054532
-0,044590
-0,039316
-0,038951
-0,043259
-0,051546
-0,062731
-0,075451
-0,088198
-0,099459
-0,107872
-0,112358
-0,112222
-0,107228
-0,097616
-0,084084
-0,067717
-0,049881
-0,032090
-0,015859
-0,002554
0,006739
0,011325
0,010962
0,005887
-0,003205
-0,015235
-0,028839
-0,042507
-0,054726
-0,064136
-0,069654
-0,070587
-0,066696
-0,058222
-0,045862
-0,030699
-0,014100
0,002423
0,017355
0,029333
0,037271
0,040474
0,038703
0,032195
0,021645
0,008137
-0,006967
-0,022154
-0,035912
-0,046877
-0,053965
-0,056482
-0,054188
-0,047322
-0,036580
-0,023044
-0,008077
0,006808
0,020099
0,030433
0,036727
0,038288
0,034876
0,026733
0,014553
-0,000578
-0,017296
-0,034086
-0,049436
-0,061978
-0,070630
-0,074695
-0,073930
-0,068575
-0,059323
-0,047255
-0,033734
-0,020270
-0,008374
0,000591
0,005545
0,005793
0,001100
-0,008295
-0,021693
-0,038010
-0,055880
-0,073787
-0,090218
-0,103807
-0,113467
-0,118503
-0,118671
-0,114211
-0,105814
-0,094562
-0,081817
-0,069089
-0,057889
-0,049578
-0,045239
-0,045563
-0,050789
-0,060675
-0,074524
-0,091251
-0,109490
-0,127727
-0,144447
-0,158284
-0,168154
-0,173361
-0,173661
-0,169295
-0,160954
-0,149722
-0,136959
-0,124178
-0,112889
-0,104456
-0,099960
-0,100095
-0,105099
-0,114732
-0,128297
-0,144710
-0,162607
-0,180473
-0,196796
-0,210209
-0,219631
-0,224364
-0,224168
-0,219282
-0,210402
-0,198608
-0,185266
-0,171886
-0,159981
-0,150916
-0,145772
-0,145244
-0,149572
-0,158516
-0,171381
-0,187083
-0,204259
-0,221395
-0,236980
-0,249649
-0,258319
-0,262296
-0,261339
-0,255689
-0,246041
-0,233478
-0,219365
-0,205214
-0,192539
-0,182703
-0,176790
-0,175496
-0,179060
-0,187244
-0,199353
-0,214303
-0,230733
-0,247129
-0,261979
-0,273920
-0,281869
-0,285133
-0,283471
-0,277124
-0,266787
-0,253545
-0,238761
-0,223950
-0,210623
-0,200147
-0,193603
-0,191689
-0,194644
-0,202229
-0,213750
-0,228125
-0,243989
-0,259831
-0,274138
-0,285548
-0,292978
-0,295733
-0,293574
-0,286742
-0,275931
-0,262226
-0,246992
-0,231740
-0,217985
-0,207091
-0,200141
-0,197832
-0,200402
-0,207614
-0,218771
-0,232793
-0,248315
-0,263824
-0,277810
-0,288907
-0,296035
-0,298497
-0,296054
-0,288947
-0,277871
-0,263910
-0,248427
-0,232936
-0,218950
-0,207833
-0,200668
-0,198151
-0,200521
-0,207540
-0,218513
-0,232356
-0,247706
-0,263050
-0,276877
-0,287822
-0,294803
-0,297125
-0,294547
-0,287311
-0,276112
-0,262031
-0,246435
-0,230835
-0,216745
-0,205528
-0,198268
-0,195660
-0,197943
-0,204879
-0,215772
-0,229540
-0,244818
-0,260094
-0,273855
-0,284738
-0,291660
-0,293925
-0,291294
-0,284007
-0,272759
-0,258633
-0,242993
-0,227352
-0,213222
-0,201968
-0,194673
-0,192032
-0,194284
-0,201190
-0,212055
-0,225796
-0,241049
-0,256301
-0,270041
-0,280903
-0,287805
-0,290051
-0,287403
-0,280100
-0,268836
-0,254690
-0,239030
-0,223372
-0,209225
-0,197956
-0,190646
-0,187991
-0,190230
-0,197125
-0,207979
-0,221710
-0,236954
-0,252198
-0,265929
-0,276784
-0,283679
-0,285920
-0,283266
-0,275957
-0,264689
-0,250545
-0,234888
-0,219231
-0,205087
-0,193819
-0,186512
-0,183859
-0,186100
-0,192997
-0,203853
-0,217587
-0,232832
-0,248078
-0,261812
-0,272669
-0,279566
-0,281809
-0,279157
-0,271851
-0,260585
-0,246443
-0,230788
-0,215133
-0,200991
-0,189726
-0,182420
-0,179770
-0,182014
-0,188912
-0,199771
-0,213506
-0,228754
-0,244002
-0,257738
-0,268597
-0,275497
-0,277742
-0,275093
-0,267789
-0,256525
-0,242385
-0,226732
-0,211080
-0,196940
-0,185677
-0,178374
-0,175725
-0,177972
-0,184873
-0,195734
-0,209471
-0,224722
-0,239972
-0,253710
-0,264572
-0,271473
-0,273721
-0,271074
-0,263772
-0,252511
-0,238373
-0,222723
-0,207073
-0,192935
-0,181675
-0,174374
-0,171728
-0,173976
-0,180880
-0,191743
-0,205483
-0,220736
-0,235989
-0,249729
-0,260593
-0,267497
-0,269747
-0,267103
-0,259803
-0,248545
-0,234409
-0,218761
-0,203114
-0,188979
-0,177721
-0,170422
-0,167779
-0,170030
-0,176936
-0,187801
-0,201544
-0,216799
-0,232055
-0,245798
-0,256664
-0,263571
-0,265823
-0,263181
-0,255884
-0,244628
-0,230495
-0,214850
-0,199205
-0,185072
-0,173817
-0,166521
-0,163880
-0,166133
-0,173042
-0,183910
-0,197655
-0,212913
-0,228171
-0,241917
-0,252786
-0,259695
-0,261950
-0,259310
-0,252016
-0,240763
-0,226632
-0,210990
-0,195347
-0,181217
-0,169964
-0,162671
-0,160033
-0,162289
-0,169200
-0,180071
-0,193819
-0,209080
-0,224340
-0,238089
-0,248960
-0,255872
-0,258130
-0,255493
-0,248202
-0,236951
-0,222823
-0,207183
-0,191543
-0,177416
-0,166166
-0,158876
-0,156240
-0,158499
-0,165413
-0,176287
-0,190037
-0,205300
-0,220564
-0,234315
-0,245189
-0,252104
-0,254364
-0,251730
-0,244442
-0,233194
-0,219069
-0,203432
-0,187795
-0,173670
-0,162423
-0,155135
-0,152502
-0,154764
-0,161681
-0,172557
-0,186311
-0,201577
-0,216843
-0,230597
-0,241474
-0,248391
-0,250654
-0,248023
-0,240737
-0,229491
-0,215369
-0,199735
-0,184100
-0,169978
-0,158734
-0,151448
-0,148818
-0,151082
-0,158001
-0,168879
-0,182635
-0,197902
-0,213170
-0,226925
-0,237804
-0,244723
-0,246986
-0,244356
-0,237070
-0,225825
-0,211702
-0,196067
-0,180431
-0,166308
-0,155061
-0,147773
-0,145139
-0,147399
-0,154312
-0,165185
-0,178934
-0,194193
-0,209452
-0,223197
-0,234063
-0,240969
-0,243217
-0,240570
-0,233265
-0,221998
-0,207852
-0,192190
-0,176526
-0,162370
-0,151087
-0,143760
-0,141084
-0,143296
-0,150159
-0,160975
-0,174662
-0,189855
-0,205041
-0,218708
-0,229489
-0,236302
-0,238452
-0,235697
-0,228277
-0,216886
-0,202607
-0,186802
-0,170984
-0,156665
-0,145208
-0,137694
-0,134819
-0,136820
-0,143458
-0,154037
-0,167471
-0,182398
-0,197302
-0,210670
-0,221138
-0,227621
-0,229423
-0,226303
-0,218502
-0,206711
-0,192014
-0,175774
-0,159503
-0,144711
-0,132763
-0,124741
-0,121340
-0,122797
-0,128874
-0,138874
-0,151714
-0,166030
-0,180309
-0,193038
-0,202853
-0,208671
-0,209798
-0,205993
-0,197498
-0,185007
-0,169605
-0,152656
-0,135674
-0,120173
-0,107517
-0,098792
-0,094695
-0,095465
-0,100867
-0,110206
-0,122402
-0,136093
-0,149769
-0,161921
-0,171185
-0,176484
-0,177123
-0,172868
-0,163960
-0,151098
-0,135368
-0,118139
-0,100925
-0,085244
-0,072462
-0,063667
-0,059557
-0,060376
-0,065887
-0,075399
-0,087833
-0,101827
-0,115873
-0,128462
-0,138232
-0,144104
-0,145385
-0,141839
-0,133709
-0,121691
-0,106871
-0,090616
-0,074439
-0,059855
-0,048231
-0,040649
-0,037807
-0,039944
-0,046822
-0,057746
-0,071633
-0,087118
-0,102689
-0,116833
-0,128185
-0,135660
-0,138562
-0,136650
-0,130162
-0,119790
-0,106616
-0,092002
-0,077456
-0,064490
-0,054465
-0,048459
-0,047166
-0,050822
-0,059183
-0,071551
-0,086840
-0,103682
-0,120560
-0,135959
-0,148510
-0,157127
-0,161111
-0,160218
-0,154686
-0,145205
-0,132855
-0,118996
-0,105138
-0,092790
-0,083314
-0,077788
-0,076905
-0,080903
-0,089538
-0,102113
-0,117544
-0,134463
-0,151356
-0,166708
-0,179154
-0,187608
-0,191375
-0,190214
-0,184363
-0,174516
-0,161754
-0,147443
-0,133093
-0,120217
-0,110179
-0,104060
-0,102558
-0,105910
-0,113878
-0,125766
-0,140493
-0,156694
-0,172857
-0,187471
-0,199171
-0,206877
-0,209892
-0,207980
-0,201379
-0,190786
-0,177285
-0,162242
-0,147170
-0,133582
-0,122844
-0,116041
-0,113868
-0,116568
-0,123902
-0,135178
-0,149315
-0,164952
-0,180580
-0,194690
-0,205924
-0,213204
-0,215843
-0,213609
-0,206752
-0,195979
-0,182384
-0,167346
-0,152395
-0,139058
-0,128718
-0,122476
-0,121046
-0,124683
-0,133162
-0,145802
-0,161528
-0,178977
-0,196634
-0,212977
-0,226623
-0,236461
-0,241759
-0,242233
-0,238067
-0,229892
-0,218722
-0,205842
-0,192681
-0,180666
-0,171069
-0,164882
-0,162702
-0,164672
-0,170452
-0,179239
-0,189836
-0,200756
-0,210346
-0,216940
-0,218997
-0,215236
-0,204738
-0,187014
-0,162031
-0,130191
-0,092270
-0,049324
-0,002561
0,046786
0,097594
0,148962
0,200297
0,251366
0,302295
0,353532
0,405764
0,459804
0,516450
0,576348
0,639848
0,706895
0,776943
0,848924
0,921262
0,991938
1,058602
1,118727
1,169783
1,209425
1,235672
1,247067
1,242800
1,222774
1,187630
1,138705
1,077937
1,007727
0,930763
0,849832
0,767618
0,686527
0,608534
0,535073
0,466983
0,404500
0,347315
0,294667
0,245483
0,198540
0,152635
0,106747
0,060178
0,012651
-0,035635
-0,084005
-0,131365
-0,176308
-0,217255
-0,252630
-0,281029
-0,301390
-0,313117
-0,316175
-0,311114
-0,299044
-0,281546
-0,260538
-0,238107
-0,216326
-0,197070
-0,181858
-0,171731
-0,167174
-0,168099
-0,173876
-0,183418
-0,195305
-0,207933
-0,219683
-0,229079
-0,234930
-0,236446
-0,233306
-0,225685
-0,214226
-0,199975
-0,184266
-0,168594
-0,154458
-0,143212
-0,135934
-0,133316
-0,135595
-0,142530
-0,153425
-0,167197
-0,182481
-0,197765
-0,211536
-0,222429
-0,229363
-0,231640
-0,229023
-0,221750
-0,210517
-0,196406
-0,180782
-0,165156
-0,151042
-0,139804
-0,132524
-0,129897
-0,132163
-0,139083
-0,149960
-0,163713
-0,178976
-0,194238
-0,207985
-0,218853
-0,225759
-0,228008
-0,225360
-0,218054
-0,206787
-0,192639
-0,176976
-0,161310
-0,147152
-0,135868
-0,128540
-0,125863
-0,128076
-0,134939
-0,145758
-0,159448
-0,174646
-0,189839
-0,203514
-0,214307
-0,221134
-0,223300
-0,220565
-0,213169
-0,201806
-0,187559
-0,171792
-0,156017
-0,141746
-0,130344
-0,122893
-0,120087
-0,122166
-0,128889
-0,139563
-0,153102
-0,168143
-0,183172
-0,196677
-0,207293
-0,213937
-0,215913
-0,212981
-0,205381
-0,193806
-0,179340
-0,163346
-0,147336
-0,132823
-0,121170
-0,113459
-0,110385
-0,112187
-0,118625
-0,129004
-0,142240
-0,156969
-0,171676
-0,184850
-0,195125
-0,201418
-0,203034
-0,199732
-0,191751
-0,179787
-0,164920
-0,148516
-0,132086
-0,117142
-0,105047
-0,096885
-0,093350
-0,094681
-0,100638
-0,110525
-0,123259
-0,137475
-0,151661
-0,164303
-0,174037
-0,179780
-0,180836
-0,176964
-0,168405
-0,155854
-0,140392
-0,123384
-0,106342
-0,090778
-0,078057
-0,069261
-0,065085
-0,065769
-0,071073
-0,080301
-0,092372
-0,105920
-0,119433
-0,131399
-0,140454
-0,145515
-0,145887
-0,141331
-0,132086
-0,118848
-0,102701
-0,085008
-0,067284
-0,051040
-0,037643
-0,028174
-0,023330
-0,023352
-0,028000
-0,036580
-0,048010
-0,060926
-0,073818
-0,085172
-0,093627
-0,098100
-0,097898
-0,092781
-0,082991
-0,069223
-0,052563
-0,034376
-0,016175
0,000526
0,014360
0,024244
0,029481
0,029829
0,025527
0,017268
0,006134
-0,006514
-0,019163
-0,030305
-0,038575
-0,042894
-0,042567
-0,037357
-0,027506
-0,013710
0,002945
0,021094
0,039222
0,055814
0,069505
0,079209
0,084230
0,084325
0,079733
0,071146
0,059646
0,046594
0,033502
0,021880
0,013090
0,008213
0,007943
0,012518
0,021695
0,034778
0,050682
0,068042
0,085343
0,101071
0,113860
0,122625
0,126671
0,125756
0,120118
0,110452
0,097837
0,083639
0,069367
0,056534
0,046502
0,040354
0,038783
0,042029
0,049851
0,061552
0,076051
0,091981
0,107830
0,122085
0,133381
0,140636
0,143153
0,140693
0,133496
0,122256
0,108058
0,092264
0,076389
0,061944
0,050295
0,042525
0,039329
0,040948
0,047143
0,057219
0,070095
0,084407
0,098644
0,111294
0,120994
0,126663
0,127606
0,123585
0,114841
0,102071
0,086359
0,069071
0,051721
0,035822
0,022742
0,013564
0,008986
0,009248
0,014113
0,022888
0,034492
0,047562
0,060588
0,072059
0,080613
0,085169
0,085034
0,079970
0,070219
0,056478
0,039833
0,021648
0,003439
-0,013279
-0,027140
-0,037061
-0,042342
-0,042743
-0,038502
-0,030311
-0,019251
-0,006686
0,005875
0,016921
0,025090
0,029300
0,028858
0,023526
0,013546
-0,000386
-0,017186
-0,035486
-0,053774
-0,070535
-0,084403
-0,094295
-0,099514
-0,099818
-0,095446
-0,087092
-0,075838
-0,063046
-0,050229
-0,038897
-0,030414
-0,025862
-0,025935
-0,030871
-0,040431
-0,053918
-0,070249
-0,088058
-0,105833
-0,122061
-0,135377
-0,144697
-0,149326
-0,149024
-0,144030
-0,135039
-0,123134
-0,109678
-0,096184
-0,084164
-0,074983
-0,069723
-0,069079
-0,073292
-0,082120
-0,094870
-0,110459
-0,127522
-0,144547
-0,160022
-0,172582
-0,181146
-0,185018
-0,183958
-0,178208
-0,168462
-0,155804
-0,141598
-0,127357
-0,114594
-0,104674
-0,098680
-0,097308
-0,100798
-0,108910
-0,120951
-0,135837
-0,152205
-0,168543
-0,183340
-0,195230
-0,203133
-0,206353
-0,204652
-0,198269
-0,187900
-0,174629
-0,159821
-0,144988
-0,131644
-0,121154
-0,114601
-0,112680
-0,115632
-0,123218
-0,134743
-0,149125
-0,165000
-0,180857
-0,195182
-0,206613
-0,214067
-0,216850
-0,214722
-0,207924
-0,197151
-0,183486
-0,168294
-0,153089
-0,139382
-0,128540
-0,121645
-0,119392
-0,122022
-0,129296
-0,140518
-0,154607
-0,170198
-0,185780
-0,199840
-0,211013
-0,218219
-0,220762
-0,218402
-0,211380
-0,200390
-0,186517
-0,171125
-0,155726
-0,141834
-0,130812
-0,123744
-0,121326
-0,123796
-0,130917
-0,141992
-0,155940
-0,171395
-0,186847
-0,200782
-0,211837
-0,218928
-0,221362
-0,218897
-0,211775
-0,200690
-0,186726
-0,171247
-0,155765
-0,141793
-0,130696
-0,123556
-0,121069
-0,123475
-0,130533
-0,141550
-0,155442
-0,170845
-0,186246
-0,200134
-0,211143
-0,218192
-0,220585
-0,218083
-0,210925
-0,199806
-0,185810
-0,170300
-0,154790
-0,140792
-0,129670
-0,122507
-0,119998
-0,122384
-0,129423
-0,140422
-0,154297
-0,169685
-0,185072
-0,198947
-0,209944
-0,216982
-0,219359
-0,216841
-0,209669
-0,198538
-0,184530
-0,169010
-0,153490
-0,139483
-0,128353
-0,121183
-0,118668
-0,121048
-0,128083
-0,139077
-0,152949
-0,168334
-0,183718
-0,197591
-0,208587
-0,215624
-0,218006
-0,215494
-0,208328
-0,197202
-0,183200
-0,167685
-0,152171
-0,138170
-0,127045
-0,119881
-0,117371
-0,119757
-0,126797
-0,137797
-0,151675
-0,167065
-0,182455
-0,196333
-0,207335
-0,214377
-0,216765
-0,214258
-0,207097
-0,195977
-0,181981
-0,166472
-0,150963
-0,136967
-0,125848
-0,118689
-0,116186
-0,118576
-0,125622
-0,136628
-0,150511
-0,165906
-0,181302
-0,195186
-0,206193
-0,213241
-0,215634
-0,213133
-0,205978
-0,194863
-0,180872
-0,165368
-0,149865
-0,135875
-0,124761
-0,117608
-0,115109
-0,117506
-0,124557
-0,135568
-0,149456
-0,164857
-0,180259
-0,194148
-0,205160
-0,212213
-0,214612
-0,212117
-0,204967
-0,193858
-0,179872
-0,164374
-0,148876
-0,134891
-0,123783
-0,116635
-0,114142
-0,116544
-0,123600
-0,134617
-0,148511
-0,163917
-0,179324
-0,193218
-0,204236
-0,211295
-0,213699
-0,211209
-0,204064
-0,192960
-0,178980
-0,163487
-0,147995
-0,134015
-0,122912
-0,115770
-0,113282
-0,115689
-0,122751
-0,133773
-0,147672
-0,163083
-0,178495
-0,192395
-0,203418
-0,210482
-0,212892
-0,210407
-0,203268
-0,192169
-0,178194
-0,162707
-0,147219
-0,133245
-0,122148
-0,115010
-0,112528
-0,114940
-0,122007
-0,133035
-0,146939
-0,162356
-0,177773
-0,191678
-0,202707
-0,209776
-0,212190
-0,209711
-0,202577
-0,191483
-0,177513
-0,162031
-0,146549
-0,132580
-0,121488
-0,114356
-0,111879
-0,114296
-0,121369
-0,132401
-0,146311
-0,161733
-0,177155
-0,191065
-0,202099
-0,209173
-0,211593
-0,209119
-0,201990
-0,190902
-0,176937
-0,161460
-0,145983
-0,132019
-0,120932
-0,113805
-0,111333
-0,113755
-0,120833
-0,131871
-0,145785
-0,161212
-0,176640
-0,190555
-0,201594
-0,208673
-0,211098
-0,208629
-0,201505
-0,190422
-0,176462
-0,160990
-0,145519
-0,131560
-0,120478
-0,113356
-0,110889
-0,113316
-0,120399
-0,131441
-0,145361
-0,160793
-0,176225
-0,190146
-0,201189
-0,208274
-0,210703
-0,208239
-0,201120
-0,190041
-0,176086
-0,160619
-0,145152
-0,131197
-0,120120
-0,113002
-0,110540
-0,112971
-0,120058
-0,131104
-0,145028
-0,160464
-0,175900
-0,189823
-0,200870
-0,207957
-0,210389
-0,207927
-0,200810
-0,189733
-0,175780
-0,160313
-0,144846
-0,130892
-0,119813
-0,112694
-0,110229
-0,112658
-0,119741
-0,130782
-0,144700
-0,160128
-0,175556
-0,189470
-0,200505
-0,207579
-0,209997
-0,207518
-0,200382
-0,189284
-0,175306
-0,159813
-0,144317
-0,130330
-0,119215
-0,112056
-0,109548
-0,111928
-0,118959
-0,129943
-0,143797
-0,159158
-0,174511
-0,188343
-0,199291
-0,206270
-0,208585
-0,205995
-0,198739
-0,187512
-0,173396
-0,157754
-0,142098
-0,127940
-0,116643
-0,109290
-0,106574
-0,108733
-0,115529
-0,126264
-0,139854
-0,154935
-0,169993
-0,183515
-0,194134
-0,200768
-0,202720
-0,199750
-0,192096
-0,180452
-0,165901
-0,149806
-0,133678
-0,119030
-0,107224
-0,099343
-0,096082
-0,097679
-0,103894
-0,114032
-0,127010
-0,141463
-0,155879
-0,168744
-0,178695
-0,184650
-0,185912
-0,182244
-0,173885
-0,161532
-0,146267
-0,129457
-0,112615
-0,097255
-0,084742
-0,076161
-0,072209
-0,073127
-0,078679
-0,088170
-0,100522
-0,114371
-0,128207
-0,140523
-0,149955
-0,155424
-0,156239
-0,152162
-0,143438
-0,130763
-0,115226
-0,098193
-0,081181
-0,065705
-0,053135
-0,044556
-0,040668
-0,041713
-0,047455
-0,057204
-0,069879
-0,084120
-0,098418
-0,111264
-0,121296
-0,127434
-0,128987
-0,125716
-0,117865
-0,106131
-0,091598
-0,075633
-0,059750
-0,045464
-0,034138
-0,026858
-0,024319
-0,026762
-0,033946
-0,045177
-0,059371
-0,075164
-0,091043
-0,105494
-0,117151
-0,124930
-0,128135
-0,126523
-0,120332
-0,110255
-0,097373
-0,083046
-0,068785
-0,056098
-0,046348
-0,040613
-0,039586
-0,043502
-0,052118
-0,064735
-0,080268
-0,097347
-0,114457
-0,130081
-0,142852
-0,151682
-0,155873
-0,155182
-0,149844
-0,140552
-0,128385
-0,114703
-0,101016
-0,088834
-0,079517
-0,074146
-0,073414
-0,077556
-0,086332
-0,099043
-0,114605
-0,131651
-0,148668
-0,164141
-0,176704
-0,185273
-0,189152
-0,188100
-0,182357
-0,172615
-0,159958
-0,145749
-0,131501
-0,118725
-0,108787
-0,102769
-0,101366
-0,104818
-0,112886
-0,124875
-0,139703
-0,156006
-0,172272
-0,186990
-0,198796
-0,206609
-0,209733
-0,207930
-0,201441
-0,190962
-0,177577
-0,162652
-0,147700
-0,134235
-0,123624
-0,116949
-0,114910
-0,117747
-0,125223
-0,136648
-0,150940
-0,166742
-0,182544
-0,196843
-0,208280
-0,215781
-0,218663
-0,216696
-0,210135
-0,199690
-0,186459
-0,171824
-0,157316
-0,144467
-0,134657
-0,128988
-0,128168
-0,132448
-0,141595
-0,154914
-0,171317
-0,189426
-0,207706
-0,224612
-0,238740
-0,248955
-0,254504
-0,255078
-0,250842
-0,242409
-0,230776
-0,217216
-0,203147
-0,189988
-0,179003
-0,171175
-0,167093
-0,166884
-0,170187
-0,176174
-0,183612
-0,190966
-0,196534
-0,198584
-0,195511
-0,185961
-0,168951
-0,143932
-0,110830
-0,070026
-0,022308
0,031220
0,089253
0,150413
0,213376
0,276982
0,340328
0,402818
0,464176
0,524416
0,583781
0,642641
0,701380
0,760269
0,819356
0,878367
0,936642
0,993117
1,046345
1,094562
1,135803
1,168036
1,189326
1,198000
1,192802
1,173022
1,138585
1,090100
1,028839
0,956684
0,876005
0,789507
0,700052
0,610456
0,523307
0,440790
0,364558
0,295640
0,234415
0,180640
0,133526
0,091874
0,054233
0,019086
-0,014968
-0,049054
-0,083886
-0,119690
-0,156181
-0,192597
-0,227789
-0,260359
-0,288820
-0,311773
-0,328073
-0,336967
-0,338194
-0,332032
-0,319287
-0,301242
-0,279542
-0,256059
-0,232734
-0,211412
-0,193687
-0,180777
-0,173426
-0,171856
-0,175761
-0,184348
-0,196422
-0,210505
-0,224980
-0,238239
-0,248842
-0,255643
-0,257899
-0,255335
-0,248165
-0,237067
-0,223112
-0,207656
-0,192207
-0,178274
-0,167220
-0,160126
-0,157688
-0,160144
-0,167254
-0,178323
-0,192269
-0,207727
-0,223183
-0,237127
-0,248193
-0,255298
-0,257748
-0,255302
-0,248200
-0,237138
-0,223198
-0,207743
-0,192288
-0,178343
-0,167274
-0,160163
-0,157704
-0,160139
-0,167226
-0,178270
-0,192190
-0,207619
-0,223046
-0,236958
-0,247991
-0,255061
-0,257473
-0,254988
-0,247844
-0,236738
-0,222751
-0,207248
-0,191741
-0,177742
-0,166615
-0,159444
-0,156923
-0,159290
-0,166308
-0,177279
-0,191122
-0,206471
-0,221814
-0,235638
-0,246578
-0,253552
-0,255863
-0,253273
-0,246019
-0,234798
-0,220691
-0,205063
-0,189425
-0,175291
-0,164023
-0,156704
-0,154029
-0,156238
-0,163089
-0,173889
-0,187552
-0,202716
-0,217866
-0,231490
-0,242223
-0,248982
-0,251071
-0,248250
-0,240758
-0,229290
-0,214929
-0,199037
-0,183128
-0,168712
-0,157155
-0,149537
-0,146554
-0,148445
-0,154970
-0,165433
-0,178750
-0,193558
-0,208342
-0,221590
-0,231936
-0,238299
-0,239981
-0,236743
-0,228824
-0,216919
-0,202109
-0,185759
-0,169380
-0,154486
-0,142438
-0,134321
-0,130828
-0,132198
-0,138193
-0,148115
-0,160882
-0,175130
-0,189345
-0,202014
-0,211773
-0,217539
-0,218616
-0,214764
-0,206224
-0,193689
-0,178242
-0,161248
-0,144219
-0,128667
-0,115957
-0,107171
-0,103004
-0,103697
-0,109010
-0,118246
-0,130325
-0,143882
-0,157404
-0,169380
-0,178444
-0,183516
-0,183900
-0,179356
-0,170126
-0,156904
-0,140775
-0,123102
-0,105400
-0,089181
-0,075810
-0,066372
-0,061562
-0,061620
-0,066308
-0,074932
-0,086410
-0,099379
-0,112327
-0,123744
-0,132265
-0,136810
-0,136685
-0,131652
-0,121951
-0,108278
-0,091720
-0,073641
-0,055555
-0,038976
-0,025271
-0,015524
-0,010432
-0,010236
-0,014698
-0,023126
-0,034437
-0,047270
-0,060114
-0,071459
-0,079942
-0,084482
-0,084386
-0,079416
-0,069814
-0,056278
-0,039892
-0,022021
-0,004182
0,012112
0,025494
0,034880
0,039572
0,039330
0,034389
0,025445
0,013576
0,000147
-0,013332
-0,025352
-0,034548
-0,039841
-0,040536
-0,036397
-0,027664
-0,015033
0,000410
0,017300
0,034122
0,049364
0,061659
0,069923
0,073459
0,072028
0,065867
0,055670
0,042520
0,027780
0,012960
-0,000426
-0,011015
-0,017726
-0,019863
-0,017188
-0,009941
0,001184
0,015103
0,030451
0,045716
0,059385
0,070094
0,076761
0,078690
0,075642
0,067857
0,056031
0,041247
0,024871
0,008414
-0,006610
-0,018835
-0,027178
-0,030942
-0,029888
-0,024253
-0,014731
-0,002405
0,011363
0,025062
0,037180
0,046355
0,051506
0,051939
0,047415
0,038177
0,024921
0,008731
-0,009026
-0,026836
-0,043184
-0,056705
-0,066314
-0,071313
-0,071461
-0,066995
-0,058609
-0,047384
-0,034682
-0,022012
-0,010887
-0,002667
0,001566
0,001120
-0,004244
-0,014283
-0,028301
-0,045212
-0,063651
-0,082102
-0,099051
-0,113132
-0,123261
-0,128739
-0,129326
-0,125259
-0,117232
-0,106325
-0,093902
-0,081472
-0,070547
-0,062490
-0,058380
-0,058913
-0,064326
-0,074378
-0,088372
-0,105225
-0,123569
-0,141893
-0,158681
-0,172569
-0,182472
-0,187694
-0,187994
-0,183612
-0,175240
-0,163962
-0,151140
-0,138286
-0,126911
-0,118381
-0,113775
-0,113790
-0,118663
-0,128156
-0,141572
-0,157827
-0,175558
-0,193252
-0,209395
-0,222623
-0,231852
-0,236389
-0,235992
-0,230902
-0,221813
-0,209809
-0,196253
-0,182658
-0,170537
-0,161254
-0,155892
-0,155146
-0,159257
-0,167984
-0,180634
-0,196123
-0,213087
-0,230014
-0,245393
-0,257858
-0,266329
-0,270109
-0,268960
-0,263123
-0,253291
-0,240550
-0,226263
-0,211944
-0,199106
-0,189113
-0,183048
-0,181609
-0,185034
-0,193085
-0,205067
-0,219897
-0,236213
-0,252502
-0,267252
-0,279100
-0,286963
-0,290147
-0,288412
-0,281999
-0,271604
-0,258310
-0,243482
-0,228632
-0,215275
-0,204774
-0,198214
-0,196290
-0,199241
-0,206830
-0,218361
-0,232752
-0,248639
-0,264510
-0,278854
-0,290305
-0,297783
-0,300593
-0,298494
-0,291728
-0,280990
-0,267363
-0,252211
-0,237049
-0,223388
-0,212593
-0,205748
-0,203548
-0,206233
-0,213563
-0,224845
-0,238995
-0,254649
-0,270296
-0,284423
-0,295666
-0,302943
-0,305558
-0,303273
-0,296326
-0,285415
-0,271621
-0,256309
-0,240993
-0,227184
-0,216247
-0,209265
-0,206934
-0,209493
-0,216704
-0,227870
-0,241909
-0,257458
-0,273004
-0,287034
-0,298184
-0,305372
-0,307903
-0,305537
-0,298513
-0,287528
-0,273664
-0,258285
-0,242905
-0,229035
-0,218040
-0,211004
-0,208620
-0,211130
-0,218293
-0,229414
-0,243411
-0,258919
-0,274426
-0,288419
-0,299535
-0,306690
-0,309190
-0,306794
-0,299743
-0,288732
-0,274843
-0,259441
-0,244038
-0,230147
-0,219133
-0,212078
-0,209677
-0,212170
-0,219311
-0,230411
-0,244389
-0,259879
-0,275369
-0,289346
-0,300447
-0,307588
-0,310075
-0,307667
-0,300605
-0,289583
-0,275684
-0,260273
-0,244861
-0,230963
-0,219941
-0,212879
-0,210472
-0,212959
-0,220101
-0,231202
-0,245181
-0,260672
-0,276163
-0,290142
-0,301244
-0,308386
-0,310873
-0,308467
-0,301405
-0,290384
-0,276486
-0,261076
-0,245666
-0,231768
-0,220747
-0,213686
-0,211280
-0,213768
-0,220911
-0,232014
-0,245993
-0,261485
-0,276977
-0,290956
-0,302059
-0,309202
-0,311691
-0,309285
-0,302224
-0,291204
-0,277307
-0,261898
-0,246488
-0,232592
-0,221572
-0,214511
-0,212106
-0,214595
-0,221738
-0,232842
-0,246822
-0,262315
-0,277807
-0,291788
-0,302891
-0,310035
-0,312524
-0,310119
-0,303059
-0,292040
-0,278143
-0,262735
-0,247326
-0,233430
-0,222410
-0,215351
-0,212946
-0,215435
-0,222580
-0,233684
-0,247665
-0,263158
-0,278651
-0,292632
-0,303736
-0,310881
-0,313370
-0,310966
-0,303906
-0,292888
-0,278992
-0,263584
-0,248175
-0,234280
-0,223261
-0,216202
-0,213797
-0,216287
-0,223432
-0,234537
-0,248518
-0,264012
-0,279505
-0,293487
-0,304591
-0,311736
-0,314226
-0,311822
-0,304763
-0,293745
-0,279849
-0,264442
-0,249034
-0,235139
-0,224120
-0,217061
-0,214657
-0,217148
-0,224293
-0,235397
-0,249379
-0,264873
-0,280367
-0,294349
-0,305454
-0,312599
-0,315089
-0,312685
-0,305627
-0,294608
-0,280713
-0,265306
-0,249898
-0,236003
-0,224985
-0,217926
-0,215522
-0,218013
-0,225158
-0,236263
-0,250245
-0,265739
-0,281233
-0,295215
-0,306320
-0,313465
-0,315956
-0,313552
-0,306494
-0,295475
-0,281580
-0,266173
-0,250766
-0,236870
-0,225852
-0,218794
-0,216390
-0,218881
-0,226026
-0,237131
-0,251113
-0,266607
-0,282101
-0,296083
-0,307188
-0,314333
-0,316824
-0,314420
-0,307361
-0,296343
-0,282448
-0,267040
-0,251633
-0,237738
-0,226720
-0,219661
-0,217257
-0,219747
-0,226893
-0,237998
-0,251979
-0,267473
-0,282967
-0,296949
-0,308054
-0,315199
-0,317689
-0,315285
-0,308226
-0,297208
-0,283313
-0,267905
-0,252497
-0,238601
-0,227583
-0,220524
-0,218120
-0,220610
-0,227754
-0,238859
-0,252840
-0,268333
-0,283827
-0,297808
-0,308912
-0,316056
-0,318545
-0,316140
-0,309080
-0,298061
-0,284164
-0,268755
-0,253345
-0,239448
-0,228427
-0,221366
-0,218959
-0,221447
-0,228588
-0,239689
-0,253667
-0,269156
-0,284645
-0,298621
-0,309719
-0,316857
-0,319339
-0,316926
-0,309858
-0,298829
-0,284921
-0,269500
-0,254078
-0,240167
-0,229130
-0,222052
-0,219626
-0,222093
-0,229211
-0,240287
-0,254237
-0,269696
-0,285152
-0,299091
-0,310150
-0,317245
-0,319681
-0,317217
-0,310093
-0,299003
-0,285031
-0,269539
-0,254040
-0,240045
-0,228919
-0,221743
-0,219213
-0,221566
-0,228564
-0,239509
-0,253319
-0,268628
-0,283923
-0,297691
-0,308567
-0,315466
-0,317693
-0,315007
-0,307648
-0,296308
-0,282071
-0,266298
-0,250503
-0,236196
-0,224740
-0,217218
-0,214324
-0,216295
-0,222892
-0,233419
-0,246791
-0,261644
-0,276464
-0,289738
-0,300101
-0,306469
-0,308146
-0,304893
-0,296947
-0,285005
-0,270149
-0,253741
-0,237296
-0,222325
-0,210193
-0,201983
-0,198390
-0,199654
-0,205536
-0,215342
-0,227990
-0,242116
-0,256210
-0,268760
-0,278403
-0,284058
-0,285032
-0,281088
-0,272466
-0,259864
-0,244367
-0,227344
-0,210307
-0,194774
-0,182111
-0,173404
-0,169351
-0,170196
-0,175703
-0,185179
-0,197545
-0,211441
-0,225358
-0,237788
-0,247369
-0,253023
-0,254057
-0,250238
-0,241807
-0,229463
-0,214293
-0,197665
-0,181095
-0,166097
-0,154041
-0,146011
-0,142706
-0,144368
-0,150759
-0,161187
-0,174572
-0,189550
-0,204611
-0,218244
-0,229086
-0,236054
-0,238455
-0,236049
-0,229075
-0,218230
-0,204595
-0,189534
-0,174558
-0,161180
-0,150761
-0,144384
-0,142741
-0,146070
-0,154129
-0,166221
-0,181260
-0,197879
-0,214562
-0,229794
-0,242207
-0,250716
-0,254620
-0,253677
-0,248124
-0,238650
-0,226337
-0,212543
-0,198777
-0,186549
-0,177219
-0,171865
-0,171180
-0,175399
-0,184278
-0,197120
-0,212838
-0,230065
-0,247284
-0,262980
-0,275786
-0,284617
-0,288774
-0,288015
-0,282578
-0,273155
-0,260827
-0,246957
-0,233056
-0,220634
-0,211055
-0,205399
-0,204361
-0,208180
-0,216615
-0,228970
-0,244163
-0,260828
-0,277453
-0,292525
-0,304680
-0,312835
-0,316296
-0,314822
-0,308655
-0,298489
-0,285408
-0,270778
-0,256111
-0,242920
-0,232572
-0,226149
-0,224348
-0,227409
-0,235094
-0,246709
-0,261173
-0,277121
-0,293044
-0,307430
-0,318916
-0,326422
-0,329256
-0,327179
-0,320436
-0,309724
-0,296132
-0,281029
-0,265934
-0,252368
-0,241703
-0,235035
-0,233069
-0,236059
-0,243782
-0,255559
-0,270325
-0,286735
-0,303294
-0,318509
-0,331031
-0,339792
-0,344107
-0,343743
-0,338937
-0,330378
-0,319132
-0,306539
-0,294076
-0,283212
-0,275256
-0,271229
-0,271754
-0,276991
-0,286617
-0,299846
-0,315503
-0,332126
-0,348106
-0,361829
-0,371826
-0,376903
-0,376250
-0,369498
-0,356744
-0,338523
-0,315737
-0,289543
-0,261221
-0,232026
-0,203036
-0,175031
-0,148387
-0,123023
-0,098388
-0,073500
-0,047037
-0,017458
0,016837
0,057340
0,105269
0,161411
0,226009
0,298682
0,378402
0,463525
0,551872
0,640855
0,727649
0,809367
0,883263
0,946900
0,998315
1,036127
1,059611
1,068708
1,063990
1,046577
1,018011
0,980107
0,934795
0,883960
0,829307
0,772246
0,713829
0,654717
0,595204
0,535266
0,474656
0,413012
0,349971
0,285287
0,218924
0,151128
0,082461
0,013802
-0,053689
-0,118647
-0,179596
-0,235065
-0,283713
-0,324446
-0,356525
-0,379642
-0,393971
-0,400169
-0,399341
-0,392964
-0,382772
-0,370611
-0,358286
-0,347408
-0,339250
-0,334649
-0,333935
-0,336929
-0,342980
-0,351055
-0,359869
-0,368041
-0,374248
-0,377386
-0,376686
-0,371808
-0,362876
-0,350470
-0,335568
-0,319440
-0,303523
-0,289268
-0,277993
-0,270746
-0,268200
-0,270577
-0,277625
-0,288644
-0,302546
-0,317962
-0,333381
-0,347287
-0,358316
-0,365385
-0,367799
-0,365318
-0,358181
-0,347083
-0,333107
-0,317618
-0,302128
-0,288149
-0,277046
-0,269901
-0,267409
-0,269811
-0,276865
-0,287878
-0,301765
-0,317164
-0,332560
-0,346442
-0,357445
-0,364487
-0,366871
-0,364358
-0,357188
-0,346056
-0,332044
-0,316517
-0,300987
-0,286966
-0,275819
-0,268627
-0,266087
-0,268437
-0,275438
-0,286394
-0,300223
-0,315560
-0,330892
-0,344706
-0,355638
-0,362605
-0,364912
-0,362318
-0,355063
-0,343842
-0,329737
-0,314113
-0,298482
-0,284356
-0,273098
-0,265792
-0,263132
-0,265357
-0,272228
-0,283049
-0,296737
-0,311927
-0,327107
-0,340763
-0,351530
-0,358326
-0,360455
-0,357677
-0,350231
-0,338812
-0,324502
-0,308665
-0,292813
-0,278458
-0,266964
-0,259413
-0,256501
-0,258465
-0,265066
-0,275609
-0,289009
-0,303902
-0,318776
-0,332116
-0,342559
-0,349021
-0,350805
-0,347673
-0,339863
-0,328069
-0,313375
-0,297143
-0,280886
-0,266115
-0,254195
-0,246208
-0,242848
-0,244354
-0,250487
-0,260550
-0,273461
-0,287854
-0,302217
-0,315037
-0,324948
-0,330868
-0,332101
-0,328407
-0,320026
-0,307651
-0,292366
-0,275535
-0,258669
-0,243281
-0,230735
-0,222113
-0,218112
-0,218968
-0,224445
-0,233845
-0,246086
-0,259804
-0,273485
-0,285619
-0,294840
-0,300065
-0,300601
-0,296206
-0,287122
-0,274042
-0,258052
-0,240515
-0,222943
-0,206851
-0,193602
-0,184281
-0,179582
-0,179746
-0,184534
-0,193252
-0,204818
-0,217867
-0,230889
-0,242372
-0,250952
-0,255548
-0,255465
-0,250465
-0,240789
-0,227133
-0,210581
-0,192499
-0,174400
-0,157799
-0,144061
-0,134270
-0,129124
-0,128862
-0,133248
-0,141588
-0,152801
-0,165523
-0,178245
-0,189455
-0,197791
-0,202172
-0,201905
-0,196753
-0,186955
-0,173211
-0,156604
-0,138500
-0,120416
-0,103863
-0,090210
-0,080541
-0,075554
-0,075489
-0,080109
-0,088721
-0,100245
-0,113318
-0,126430
-0,138070
-0,146875
-0,151766
-0,152049
-0,147485
-0,138318
-0,125243
-0,109345
-0,091992
-0,074695
-0,058971
-0,046185
-0,037422
-0,033377
-0,034293
-0,039932
-0,049599
-0,062213
-0,076411
-0,090683
-0,103516
-0,113547
-0,119696
-0,121267
-0,118022
-0,110202
-0,098502
-0,084005
-0,068078
-0,052233
-0,037983
-0,026692
-0,019444
-0,016934
-0,019403
-0,026609
-0,037859
-0,052070
-0,067876
-0,083766
-0,098226
-0,109892
-0,117680
-0,120895
-0,119297
-0,113124
-0,103070
-0,090219
-0,075932
-0,061722
-0,049100
-0,039430
-0,033792
-0,032880
-0,036934
-0,045712
-0,058517
-0,074265
-0,091590
-0,108978
-0,124915
-0,138034
-0,147252
-0,151872
-0,151651
-0,146827
-0,138095
-0,126534
-0,113507
-0,100525
-0,089098
-0,080587
-0,076075
-0,076254
-0,081362
-0,091156
-0,104940
-0,121629
-0,139856
-0,158107
-0,174867
-0,188770
-0,198730
-0,204051
-0,204491
-0,200288
-0,192134
-0,181111
-0,168580
-0,156053
-0,145040
-0,136903
-0,132723
-0,133194
-0,138554
-0,148560
-0,162517
-0,179339
-0,197662
-0,215970
-0,232750
-0,246635
-0,256543
-0,261775
-0,262091
-0,257730
-0,249386
-0,238139
-0,225353
-0,212539
-0,201210
-0,192727
-0,188174
-0,188244
-0,193176
-0,202730
-0,216209
-0,232531
-0,250330
-0,268093
-0,284307
-0,297607
-0,306911
-0,311522
-0,311200
-0,306185
-0,297172
-0,285243
-0,271762
-0,258243
-0,246196
-0,236986
-0,231697
-0,231023
-0,235204
-0,244000
-0,256717
-0,272271
-0,289299
-0,306289
-0,321727
-0,334250
-0,342776
-0,346610
-0,345512
-0,339722
-0,329936
-0,317238
-0,302991
-0,288709
-0,275905
-0,265944
-0,259908
-0,258494
-0,261942
-0,270012
-0,282010
-0,296854
-0,313180
-0,329476
-0,344230
-0,356078
-0,363939
-0,367117
-0,365374
-0,358949
-0,348539
-0,335227
-0,320378
-0,305505
-0,292120
-0,281590
-0,274997
-0,273037
-0,275950
-0,283497
-0,294983
-0,309327
-0,325165
-0,340984
-0,355272
-0,366667
-0,374085
-0,376832
-0,374668
-0,367835
-0,357027
-0,343328
-0,328102
-0,312863
-0,299124
-0,288248
-0,281321
-0,279036
-0,281634
-0,288877
-0,300068
-0,314126
-0,329687
-0,345238
-0,359268
-0,370412
-0,377588
-0,380102
-0,377713
-0,370662
-0,359645
-0,345744
-0,330323
-0,314897
-0,300976
-0,289927
-0,282832
-0,280387
-0,282830
-0,289924
-0,300972
-0,314893
-0,330322
-0,345747
-0,359656
-0,370684
-0,377749
-0,380155
-0,377664
-0,370516
-0,359404
-0,345413
-0,329907
-0,314399
-0,300400
-0,289276
-0,282109
-0,279595
-0,281974
-0,289005
-0,299994
-0,313858
-0,329233
-0,344607
-0,358466
-0,369447
-0,376468
-0,378832
-0,376301
-0,369114
-0,357966
-0,343940
-0,328401
-0,312861
-0,298832
-0,287679
-0,280486
-0,277946
-0,280300
-0,287308
-0,298275
-0,312118
-0,327473
-0,342821
-0,356656
-0,367615
-0,374614
-0,376958
-0,374407
-0,367202
-0,356037
-0,341995
-0,326440
-0,310885
-0,296843
-0,285677
-0,278471
-0,275919
-0,278262
-0,285259
-0,296216
-0,310050
-0,325396
-0,340742
-0,354575
-0,365531
-0,372528
-0,374870
-0,372317
-0,365109
-0,353942
-0,339897
-0,324341
-0,308784
-0,294739
-0,283571
-0,276363
-0,273809
-0,276149
-0,283144
-0,294099
-0,307931
-0,323274
-0,338618
-0,352449
-0,363403
-0,370397
-0,372737
-0,370182
-0,362972
-0,351802
-0,337756
-0,322197
-0,306638
-0,292591
-0,281421
-0,274210
-0,271654
-0,273992
-0,280985
-0,291938
-0,305767
-0,321108
-0,336450
-0,350278
-0,361230
-0,368222
-0,370560
-0,368002
-0,360790
-0,349619
-0,335570
-0,320008
-0,304447
-0,290398
-0,279225
-0,272013
-0,269454
-0,271790
-0,278781
-0,289731
-0,303558
-0,318897
-0,334237
-0,348063
-0,359013
-0,366003
-0,368338
-0,365778
-0,358564
-0,347390
-0,333339
-0,317775
-0,302212
-0,288160
-0,276986
-0,269771
-0,267210
-0,269544
-0,276532
-0,287480
-0,301305
-0,316642
-0,331979
-0,345803
-0,356751
-0,363739
-0,366071
-0,363510
-0,356293
-0,345117
-0,331064
-0,315498
-0,299932
-0,285878
-0,274701
-0,267484
-0,264921
-0,267253
-0,274239
-0,285185
-0,299007
-0,314342
-0,329677
-0,343499
-0,354444
-0,361430
-0,363760
-0,361196
-0,353978
-0,342799
-0,328744
-0,313176
-0,297607
-0,283552
-0,272373
-0,265153
-0,262588
-0,264917
-0,271901
-0,282845
-0,296665
-0,311998
-0,327330
-0,341150
-0,352093
-0,359076
-0,361405
-0,358839
-0,351618
-0,340437
-0,326379
-0,310809
-0,295239
-0,281181
-0,269999
-0,262778
-0,260210
-0,262538
-0,269519
-0,280461
-0,294279
-0,309609
-0,324939
-0,338757
-0,349698
-0,356679
-0,359005
-0,356437
-0,349214
-0,338031
-0,323971
-0,308398
-0,292826
-0,278766
-0,267582
-0,260358
-0,257789
-0,260114
-0,267094
-0,278033
-0,291848
-0,307177
-0,322505
-0,336320
-0,347259
-0,354238
-0,356562
-0,353991
-0,346766
-0,335581
-0,321518
-0,305944
-0,290369
-0,276307
-0,265121
-0,257895
-0,255323
-0,257646
-0,264623
-0,275560
-0,289373
-0,304699
-0,320025
-0,333838
-0,344774
-0,351750
-0,354071
-0,351498
-0,344270
-0,333082
-0,319017
-0,303439
-0,287861
-0,273795
-0,262606
-0,255376
-0,252801
-0,255120
-0,262093
-0,273025
-0,286833
-0,302154
-0,317474
-0,331281
-0,342211
-0,349180
-0,351494
-0,348912
-0,341675
-0,330477
-0,316402
-0,300812
-0,285222
-0,271143
-0,259938
-0,252692
-0,250099
-0,252398
-0,259350
-0,270259
-0,284042
-0,299335
-0,314625
-0,328399
-0,339292
-0,346222
-0,348494
-0,345866
-0,338578
-0,327326
-0,313191
-0,297537
-0,281877
-0,267722
-0,256437
-0,249103
-0,246414
-0,248611
-0,255453
-0,266244
-0,279901
-0,295058
-0,310202
-0,323820
-0,334547
-0,341299
-0,343381
-0,340551
-0,333049
-0,321569
-0,307192
-0,291282
-0,275351
-0,260910
-0,249322
-0,241669
-0,238645
-0,240489
-0,246961
-0,257364
-0,270614
-0,285346
-0,300048
-0,313204
-0,323451
-0,329704
-0,331269
-0,327903
-0,319847
-0,307795
-0,292829
-0,276313
-0,259760
-0,244682
-0,232442
-0,224124
-0,220423
-0,221578
-0,227351
-0,237047
-0,249583
-0,263597
-0,277575
-0,290008
-0,299532
-0,305065
-0,305913
-0,301840
-0,293086
-0,280347
-0,264711
-0,247542
-0,230355
-0,214667
-0,201843
-0,192970
-0,188745
-0,189412
-0,194734
-0,204018
-0,216187
-0,229878
-0,243582
-0,255792
-0,265146
-0,270566
-0,271359
-0,267290
-0,258602
-0,245995
-0,230553
-0,213647
-0,196791
-0,181501
-0,169145
-0,160810
-0,157192
-0,158536
-0,164604
-0,174704
-0,187755
-0,202395
-0,217115
-0,230402
-0,240895
-0,247512
-0,249559
-0,246798
-0,239469
-0,228266
-0,214274
-0,198857
-0,183526
-0,169794
-0,159024
-0,152298
-0,150309
-0,153296
-0,161017
-0,172775
-0,187485
-0,203780
-0,220146
-0,235066
-0,247174
-0,255384
-0,258997
-0,257771
-0,251941
-0,242199
-0,229625
-0,215578
-0,201569
-0,189104
-0,179546
-0,173972
-0,173075
-0,177090
-0,185774
-0,198429
-0,213966
-0,231020
-0,248074
-0,263612
-0,276267
-0,284953
-0,288971
-0,288080
-0,282516
-0,272972
-0,260528
-0,246546
-0,232537
-0,220012
-0,210333
-0,204580
-0,203449
-0,207177
-0,215523
-0,227792
-0,242900
-0,259481
-0,276022
-0,291012
-0,303085
-0,311158
-0,314537
-0,312980
-0,306730
-0,296480
-0,283314
-0,268597
-0,253842
-0,240562
-0,230122
-0,223606
-0,221709
-0,224673
-0,232258
-0,243771
-0,258129
-0,273969
-0,289780
-0,304051
-0,315419
-0,322803
-0,325508
-0,323298
-0,316413
-0,305552
-0,291800
-0,276526
-0,261245
-0,247475
-0,236587
-0,229669
-0,227427
-0,230108
-0,237486
-0,248876
-0,263212
-0,279144
-0,295178
-0,309818
-0,321720
-0,329818
-0,333435
-0,332347
-0,326806
-0,317516
-0,305563
-0,292308
-0,279254
-0,267893
-0,259562
-0,255306
-0,255773
-0,261145
-0,271119
-0,284925
-0,301401
-0,319097
-0,336410
-0,351735
-0,363612
-0,370861
-0,372684
-0,368739
-0,359153
-0,344505
-0,325745
-0,304095
-0,280903
-0,257495
-0,235025
-0,214342
-0,195876
-0,179583
-0,164917
-0,150868
-0,136035
-0,118750
-0,097225
-0,069722
-0,034716
0,008943
0,061912
0,124258
0,195426
0,274246
0,358997
0,447510
0,537311
0,625785
0,710346
0,788600
0,858493
0,918416
0,967280
1,004535
1,030152
1,044560
1,048544
1,043135
1,029475
1,008695
0,981809
0,949630
0,912724
0,871403
0,825749
0,775676
0,721018
0,661619
0,597442
0,528655
0,455695
0,379316
0,300583
0,220844
0,141665
0,064732
-0,008258
-0,075716
-0,136272
-0,188880
-0,232886
-0,268074
-0,294676
-0,313345
-0,325098
-0,331233
-0,333220
-0,332589
-0,330806
-0,329161
-0,328670
-0,329997
-0,333416
-0,338799
-0,345654
-0,353186
-0,360402
-0,366229
-0,369645
-0,369809
-0,366167
-0,358538
-0,347147
-0,332624
-0,315956
-0,298395
-0,281340
-0,266195
-0,254230
-0,246448
-0,243482
-0,245522
-0,252293
-0,263073
-0,276762
-0,291983
-0,307215
-0,320942
-0,331796
-0,338692
-0,340934
-0,338282
-0,330975
-0,319707
-0,305562
-0,289903
-0,274244
-0,260096
-0,248825
-0,241511
-0,238852
-0,241086
-0,247973
-0,258818
-0,272539
-0,287771
-0,303002
-0,316718
-0,327556
-0,334433
-0,336653
-0,333977
-0,326644
-0,315349
-0,301175
-0,285486
-0,269794
-0,255613
-0,244305
-0,236954
-0,234255
-0,236447
-0,243291
-0,254090
-0,267763
-0,282945
-0,298122
-0,311783
-0,322562
-0,329377
-0,331533
-0,328789
-0,321385
-0,310016
-0,295765
-0,279995
-0,264218
-0,249948
-0,238548
-0,231101
-0,228300
-0,230387
-0,237120
-0,247805
-0,261358
-0,276415
-0,291462
-0,304988
-0,315626
-0,322295
-0,324298
-0,321396
-0,313828
-0,302288
-0,287859
-0,271904
-0,255937
-0,241469
-0,229863
-0,222203
-0,219182
-0,221040
-0,227538
-0,237978
-0,251279
-0,266075
-0,280853
-0,294100
-0,304451
-0,310824
-0,312522
-0,309305
-0,301412
-0,289539
-0,274766
-0,258459
-0,242128
-0,227287
-0,215298
-0,207244
-0,203820
-0,205264
-0,211337
-0,221343
-0,234198
-0,248538
-0,262849
-0,275620
-0,285484
-0,291359
-0,292549
-0,288814
-0,280393
-0,267981
-0,252660
-0,235795
-0,218897
-0,203478
-0,190902
-0,182253
-0,178224
-0,179055
-0,184506
-0,193883
-0,206101
-0,219796
-0,233456
-0,245569
-0,254769
-0,259973
-0,260488
-0,256073
-0,246967
-0,233866
-0,217854
-0,200293
-0,182698
-0,166581
-0,153306
-0,143957
-0,139229
-0,139362
-0,144118
-0,152800
-0,164328
-0,177337
-0,190316
-0,201752
-0,210283
-0,214825
-0,214686
-0,209626
-0,199885
-0,186161
-0,169535
-0,151375
-0,133194
-0,116505
-0,102674
-0,092785
-0,087534
-0,087162
-0,091432
-0,099649
-0,110733
-0,123319
-0,135898
-0,146959
-0,155139
-0,159356
-0,158918
-0,153586
-0,143602
-0,129663
-0,112853
-0,094539
-0,076235
-0,059456
-0,045568
-0,035655
-0,030414
-0,030088
-0,034439
-0,042773
-0,054010
-0,066787
-0,079594
-0,090921
-0,099405
-0,103965
-0,103908
-0,098998
-0,089474
-0,076035
-0,059765
-0,042030
-0,024345
-0,008224
0,004966
0,014142
0,018606
0,018117
0,012913
0,003686
-0,008480
-0,022225
-0,036036
-0,048403
-0,057963
-0,063634
-0,064722
-0,060990
-0,052677
-0,040481
-0,025485
-0,009053
0,007299
0,022060
0,033864
0,041627
0,044655
0,042706
0,036019
0,025291
0,011602
-0,003682
-0,019049
-0,032987
-0,044132
-0,051401
-0,054097
-0,051982
-0,045295
-0,034730
-0,021370
-0,006578
0,008133
0,021253
0,031417
0,037543
0,038938
0,035363
0,027058
0,014719
-0,000568
-0,017439
-0,034380
-0,049876
-0,062563
-0,071355
-0,075557
-0,074926
-0,069701
-0,060575
-0,048629
-0,035227
-0,021877
-0,010092
-0,001233
0,003619
0,003770
-0,001017
-0,010500
-0,023983
-0,040381
-0,058326
-0,076305
-0,092803
-0,106454
-0,116172
-0,121261
-0,121479
-0,117063
-0,108706
-0,097489
-0,084775
-0,072074
-0,060897
-0,052604
-0,048279
-0,048613
-0,053845
-0,063733
-0,077579
-0,094300
-0,112530
-0,130753
-0,147455
-0,161272
-0,171118
-0,176296
-0,176566
-0,172165
-0,163787
-0,152514
-0,139708
-0,126881
-0,115544
-0,107059
-0,102509
-0,102588
-0,107533
-0,117105
-0,130607
-0,146956
-0,164786
-0,182584
-0,198837
-0,212179
-0,221527
-0,226186
-0,225914
-0,220952
-0,211994
-0,200122
-0,186700
-0,173241
-0,161255
-0,152108
-0,146883
-0,146273
-0,150519
-0,159380
-0,172162
-0,187782
-0,204875
-0,221929
-0,237432
-0,250019
-0,258608
-0,262503
-0,261466
-0,255736
-0,246009
-0,233367
-0,219175
-0,204947
-0,192194
-0,182283
-0,176295
-0,174927
-0,178418
-0,186529
-0,198567
-0,213447
-0,229808
-0,246135
-0,260919
-0,272794
-0,280679
-0,283879
-0,282155
-0,275746
-0,265350
-0,252049
-0,237208
-0,222340
-0,208959
-0,198428
-0,191832
-0,189867
-0,192772
-0,200308
-0,211781
-0,226109
-0,241927
-0,257725
-0,271990
-0,283358
-0,290747
-0,293462
-0,291265
-0,284395
-0,273548
-0,259808
-0,244539
-0,229254
-0,215467
-0,204542
-0,197562
-0,195223
-0,197765
-0,204949
-0,216080
-0,230076
-0,245573
-0,261059
-0,275021
-0,286097
-0,293202
-0,295643
-0,293181
-0,286055
-0,274960
-0,260981
-0,245481
-0,229973
-0,215971
-0,204838
-0,197659
-0,195127
-0,197484
-0,204490
-0,215449
-0,229281
-0,244619
-0,259952
-0,273768
-0,284703
-0,291674
-0,293986
-0,291400
-0,284155
-0,272947
-0,258858
-0,243254
-0,227647
-0,213549
-0,202326
-0,195059
-0,192445
-0,194723
-0,201653
-0,212540
-0,226303
-0,241576
-0,256847
-0,270604
-0,281482
-0,288400
-0,290661
-0,288026
-0,280735
-0,269484
-0,255354
-0,239711
-0,224067
-0,209934
-0,198678
-0,191380
-0,188736
-0,190985
-0,197889
-0,208752
-0,222491
-0,237742
-0,252992
-0,266730
-0,277590
-0,284490
-0,286735
-0,284085
-0,276774
-0,265503
-0,251356
-0,235696
-0,220036
-0,205889
-0,194619
-0,187309
-0,184653
-0,186892
-0,193786
-0,204640
-0,218371
-0,233614
-0,248857
-0,262588
-0,273442
-0,280337
-0,282577
-0,279923
-0,272614
-0,261346
-0,247201
-0,231543
-0,215886
-0,201741
-0,190474
-0,183166
-0,180512
-0,182754
-0,189650
-0,200506
-0,214239
-0,229485
-0,244730
-0,258464
-0,269320
-0,276218
-0,278460
-0,275808
-0,268502
-0,257236
-0,243093
-0,227438
-0,211784
-0,197641
-0,186376
-0,179071
-0,176420
-0,178664
-0,185563
-0,196421
-0,210157
-0,225405
-0,240653
-0,254389
-0,265248
-0,272148
-0,274393
-0,271743
-0,264439
-0,253176
-0,239036
-0,223384
-0,207731
-0,193592
-0,182329
-0,175026
-0,172378
-0,174624
-0,181526
-0,192387
-0,206125
-0,221376
-0,236626
-0,250365
-0,261226
-0,268129
-0,270376
-0,267730
-0,260428
-0,249168
-0,235030
-0,219380
-0,203731
-0,189594
-0,178334
-0,171033
-0,168388
-0,170637
-0,177541
-0,188405
-0,202146
-0,217399
-0,232652
-0,246393
-0,257258
-0,264163
-0,266413
-0,263769
-0,256471
-0,245213
-0,231078
-0,215431
-0,199784
-0,185649
-0,174392
-0,167095
-0,164452
-0,166704
-0,173610
-0,184477
-0,198220
-0,213476
-0,228733
-0,242477
-0,253344
-0,260251
-0,262505
-0,259863
-0,252568
-0,241312
-0,227180
-0,211536
-0,195892
-0,181761
-0,170506
-0,163211
-0,160571
-0,162826
-0,169736
-0,180605
-0,194351
-0,209610
-0,224869
-0,238616
-0,249486
-0,256396
-0,258652
-0,256014
-0,248721
-0,237469
-0,223340
-0,207698
-0,192057
-0,177929
-0,166677
-0,159385
-0,156748
-0,159006
-0,165918
-0,176790
-0,190540
-0,205801
-0,221063
-0,234813
-0,245686
-0,252600
-0,254859
-0,252223
-0,244933
-0,233684
-0,219558
-0,203919
-0,188281
-0,174155
-0,162907
-0,155618
-0,152984
-0,155244
-0,162160
-0,173035
-0,186787
-0,202052
-0,217317
-0,231070
-0,241946
-0,248863
-0,251124
-0,248492
-0,241205
-0,229959
-0,215836
-0,200200
-0,184565
-0,170443
-0,159197
-0,151911
-0,149280
-0,151544
-0,158462
-0,169341
-0,183096
-0,198364
-0,213632
-0,227387
-0,238266
-0,245186
-0,247451
-0,244821
-0,237537
-0,226294
-0,212173
-0,196541
-0,180908
-0,166788
-0,155545
-0,148262
-0,145634
-0,147900
-0,154820
-0,165701
-0,179458
-0,194728
-0,209997
-0,223755
-0,234635
-0,241555
-0,243821
-0,241192
-0,233908
-0,222664
-0,208543
-0,192910
-0,177276
-0,163153
-0,151908
-0,144621
-0,141988
-0,144249
-0,151163
-0,162037
-0,175786
-0,191046
-0,206305
-0,220049
-0,230916
-0,237821
-0,240069
-0,237420
-0,230114
-0,218846
-0,204697
-0,189034
-0,173366
-0,159207
-0,147921
-0,140590
-0,137909
-0,140116
-0,146973
-0,157783
-0,171463
-0,186648
-0,201826
-0,215482
-0,226253
-0,233055
-0,235191
-0,232423
-0,224988
-0,213581
-0,199284
-0,183460
-0,167622
-0,153281
-0,141800
-0,134262
-0,131359
-0,133332
-0,139940
-0,150486
-0,163887
-0,178777
-0,193643
-0,206971
-0,217396
-0,223835
-0,225591
-0,222423
-0,214571
-0,202728
-0,187977
-0,171680
-0,155350
-0,140498
-0,128488
-0,120403
-0,116935
-0,118326
-0,124334
-0,134265
-0,147035
-0,161279
-0,175486
-0,188143
-0,197885
-0,203631
-0,204685
-0,200809
-0,192242
-0,179682
-0,164211
-0,147196
-0,130149
-0,114586
-0,101872
-0,093092
-0,088942
-0,089665
-0,095023
-0,104324
-0,116486
-0,130150
-0,143804
-0,155939
-0,165195
-0,170491
-0,171136
-0,166894
-0,158007
-0,145174
-0,129483
-0,112300
-0,095142
-0,079525
-0,066817
-0,058105
-0,054088
-0,055008
-0,060631
-0,070263
-0,082827
-0,096961
-0,111155
-0,123901
-0,133837
-0,139883
-0,141347
-0,137991
-0,130057
-0,118243
-0,103633
-0,087594
-0,071638
-0,057281
-0,045886
-0,038538
-0,035932
-0,038308
-0,045426
-0,056591
-0,070719
-0,086445
-0,102255
-0,116637
-0,128223
-0,135930
-0,139059
-0,137370
-0,131099
-0,120939
-0,107970
-0,093554
-0,079199
-0,066415
-0,056563
-0,050722
-0,049585
-0,053385
-0,061882
-0,074375
-0,089778
-0,106723
-0,123693
-0,139173
-0,151794
-0,160470
-0,164502
-0,163647
-0,158140
-0,148674
-0,136328
-0,122464
-0,108590
-0,096216
-0,086704
-0,081134
-0,080198
-0,084133
-0,092699
-0,105197
-0,120543
-0,137371
-0,154166
-0,169416
-0,181753
-0,190095
-0,193745
-0,192462
-0,186487
-0,176512
-0,163622
-0,149179
-0,134696
-0,121686
-0,111513
-0,105259
-0,103622
-0,106840
-0,114674
-0,126430
-0,141026
-0,157097
-0,173133
-0,187622
-0,199200
-0,206786
-0,209684
-0,207658
-0,200946
-0,190247
-0,176643
-0,161501
-0,146334
-0,132657
-0,121836
-0,114956
-0,112714
-0,115353
-0,122637
-0,133875
-0,147989
-0,163621
-0,179266
-0,193419
-0,204727
-0,212118
-0,214910
-0,212877
-0,206276
-0,195819
-0,182607
-0,168023
-0,153597
-0,140861
-0,131192
-0,125687
-0,125049
-0,129519
-0,138855
-0,152349
-0,168898
-0,187110
-0,205431
-0,222302
-0,236300
-0,246275
-0,251458
-0,251529
-0,246640
-0,237396
-0,224787
-0,210079
-0,194688
-0,180024
-0,167345
-0,157623
-0,151433
-0,148882
-0,149581
-0,152670
-0,156876
-0,160618
-0,162145
-0,159677
-0,151559
-0,136400
-0,113188
-0,081365
-0,040871
0,007869
0,063990
0,126274
0,193259
0,263373
0,335056
0,406881
0,477650
0,546453
0,612694
0,676078
0,736559
0,794257
0,849360
0,902009
0,952203
0,999701
1,043975
1,084177
1,119166
1,147565
1,167856
1,178504
1,178099
1,165499
1,139963
1,101260
1,049740
0,986357
0,912652
0,830676
0,742869
0,651915
0,560557
0,471418
0,386823
0,308645
0,238199
0,176170
0,122611
0,076984
0,038266
0,005084
-0,024114
-0,050880
-0,076595
-0,102327
-0,128721
-0,155949
-0,183707
-0,211270
-0,237589
-0,261425
-0,281501
-0,296652
-0,305962
-0,308879
-0,305288
-0,295538
-0,280431
-0,261166
-0,239241
-0,216342
-0,194195
-0,174435
-0,158461
-0,147329
-0,141658
-0,141587
-0,146762
-0,156373
-0,169234
-0,183888
-0,198749
-0,212244
-0,222964
-0,229792
-0,232010
-0,229362
-0,222076
-0,210842
-0,196736
-0,181122
-0,165509
-0,151410
-0,140187
-0,132924
-0,130316
-0,132601
-0,139541
-0,150439
-0,164214
-0,179501
-0,194786
-0,208559
-0,219453
-0,226388
-0,228666
-0,226049
-0,218776
-0,207542
-0,193429
-0,177803
-0,162176
-0,148059
-0,136817
-0,129533
-0,126902
-0,129164
-0,136078
-0,146949
-0,160695
-0,175950
-0,191203
-0,204941
-0,215799
-0,222694
-0,224931
-0,222270
-0,214950
-0,203668
-0,189504
-0,173824
-0,158139
-0,143962
-0,132657
-0,125307
-0,122606
-0,124794
-0,131631
-0,142421
-0,156082
-0,171249
-0,186409
-0,200049
-0,210805
-0,217594
-0,219720
-0,216942
-0,209502
-0,198092
-0,183797
-0,167979
-0,152151
-0,137824
-0,126364
-0,118852
-0,115983
-0,117996
-0,124651
-0,135253
-0,148718
-0,163682
-0,178631
-0,192053
-0,202583
-0,209137
-0,211020
-0,207993
-0,200293
-0,188616
-0,174043
-0,157940
-0,141817
-0,127187
-0,115413
-0,107578
-0,104376
-0,106046
-0,112349
-0,122589
-0,135682
-0,150263
-0,164819
-0,177838
-0,187954
-0,194085
-0,195534
-0,192061
-0,183906
-0,171763
-0,156714
-0,140124
-0,123503
-0,108365
-0,096074
-0,087711
-0,083971
-0,085093
-0,090839
-0,100511
-0,113027
-0,127021
-0,140983
-0,153398
-0,162902
-0,168412
-0,169232
-0,165123
-0,156325
-0,143531
-0,127826
-0,110573
-0,093284
-0,077473
-0,064503
-0,055458
-0,051032
-0,051465
-0,056519
-0,065498
-0,077319
-0,090618
-0,103884
-0,115605
-0,124415
-0,129234
-0,129366
-0,124573
-0,115094
-0,101626
-0,085252
-0,067337
-0,049394
-0,032937
-0,019331
-0,009659
-0,004619
-0,004450
-0,008914
-0,017317
-0,028578
-0,041333
-0,054071
-0,065282
-0,073601
-0,077948
-0,077629
-0,072406
-0,062520
-0,048668
-0,031935
-0,013685
0,004566
0,021304
0,035163
0,045059
0,050295
0,050629
0,046298
0,037997
0,026805
0,014086
0,001350
-0,009893
-0,018281
-0,022732
-0,022553
-0,017508
-0,007837
0,005763
0,022206
0,040126
0,058008
0,074339
0,087752
0,097161
0,101871
0,101639
0,096703
0,087756
0,075880
0,062436
0,048936
0,036890
0,027661
0,022330
0,021590
0,025680
0,034358
0,046927
0,062305
0,079123
0,095870
0,111032
0,123242
0,131416
0,134860
0,133331
0,127069
0,116768
0,103510
0,088659
0,073726
0,060223
0,049515
0,042684
0,040424
0,042975
0,050097
0,061095
0,074886
0,090106
0,105243
0,118783
0,129364
0,135903
0,137705
0,134531
0,126622
0,114673
0,099767
0,083270
0,066696
0,051558
0,039221
0,030769
0,026899
0,027851
0,033387
0,042814
0,055050
0,068732
0,082349
0,094391
0,103494
0,108578
0,108949
0,104369
0,095080
0,081779
0,065551
0,047761
0,029925
0,013556
0,000022
-0,009594
-0,014594
-0,014736
-0,010258
-0,001852
0,009399
0,022135
0,034844
0,046017
0,054291
0,058585
0,058207
0,052918
0,042961
0,029032
0,012216
-0,006119
-0,024461
-0,041294
-0,055253
-0,065252
-0,070595
-0,071039
-0,066824
-0,058642
-0,047575
-0,034985
-0,022382
-0,011279
-0,003038
0,001261
0,000923
-0,004291
-0,014138
-0,027923
-0,044561
-0,062687
-0,080787
-0,097348
-0,111005
-0,120673
-0,125656
-0,125714
-0,121086
-0,112466
-0,100935
-0,087859
-0,074747
-0,063114
-0,054321
-0,049451
-0,049200
-0,053806
-0,063029
-0,076174
-0,092158
-0,109616
-0,127035
-0,142903
-0,155855
-0,164809
-0,169069
-0,168396
-0,163030
-0,153664
-0,141384
-0,127552
-0,113682
-0,101286
-0,091729
-0,086093
-0,085075
-0,088915
-0,097372
-0,109752
-0,124974
-0,141672
-0,158334
-0,173450
-0,185654
-0,193865
-0,197388
-0,195983
-0,189891
-0,179808
-0,166817
-0,152282
-0,137717
-0,124635
-0,114400
-0,108097
-0,106420
-0,109611
-0,117429
-0,129181
-0,143784
-0,159875
-0,175940
-0,190470
-0,202099
-0,209747
-0,212717
-0,210771
-0,204149
-0,193548
-0,180050
-0,165020
-0,149971
-0,136416
-0,125720
-0,118967
-0,116852
-0,119616
-0,127018
-0,138365
-0,152574
-0,168281
-0,183975
-0,198143
-0,209421
-0,216727
-0,219367
-0,217100
-0,210168
-0,199266
-0,185476
-0,170164
-0,154842
-0,141024
-0,130074
-0,123075
-0,120722
-0,123256
-0,130438
-0,141571
-0,155575
-0,171084
-0,186588
-0,200572
-0,211674
-0,218811
-0,221288
-0,218865
-0,211783
-0,200737
-0,186809
-0,171365
-0,155916
-0,141977
-0,130910
-0,123800
-0,121341
-0,123774
-0,130858
-0,141899
-0,155815
-0,171240
-0,186663
-0,200572
-0,211601
-0,218669
-0,221080
-0,218595
-0,211453
-0,200350
-0,186369
-0,170875
-0,155379
-0,141394
-0,130284
-0,123134
-0,120637
-0,123033
-0,130084
-0,141093
-0,154979
-0,170376
-0,185772
-0,199656
-0,210662
-0,217708
-0,220099
-0,217595
-0,210436
-0,199317
-0,185321
-0,169812
-0,154303
-0,140306
-0,129180
-0,122013
-0,119502
-0,121885
-0,128923
-0,139921
-0,153796
-0,169184
-0,184573
-0,198449
-0,209448
-0,216488
-0,218874
-0,216365
-0,209202
-0,198080
-0,184081
-0,168570
-0,153060
-0,139062
-0,127941
-0,120780
-0,118274
-0,120662
-0,127706
-0,138710
-0,152591
-0,167984
-0,183378
-0,197259
-0,208264
-0,215310
-0,217701
-0,215198
-0,208041
-0,196924
-0,182931
-0,167425
-0,151920
-0,137928
-0,126812
-0,119657
-0,117156
-0,119550
-0,126600
-0,137609
-0,151495
-0,166894
-0,182293
-0,196180
-0,207191
-0,214242
-0,216639
-0,214141
-0,206989
-0,195878
-0,181890
-0,166390
-0,150890
-0,136903
-0,125793
-0,118643
-0,116148
-0,118548
-0,125602
-0,136617
-0,150509
-0,165913
-0,181318
-0,195210
-0,206226
-0,213283
-0,215685
-0,213193
-0,206046
-0,194940
-0,180958
-0,165463
-0,149969
-0,135987
-0,124883
-0,117738
-0,115248
-0,117653
-0,124713
-0,135733
-0,149630
-0,165040
-0,180450
-0,194348
-0,205369
-0,212431
-0,214839
-0,212352
-0,205211
-0,194110
-0,180133
-0,164644
-0,149155
-0,135178
-0,124079
-0,116940
-0,114455
-0,116866
-0,123931
-0,134956
-0,148859
-0,164274
-0,179689
-0,193592
-0,204619
-0,211686
-0,214099
-0,211617
-0,204481
-0,193386
-0,179414
-0,163930
-0,148446
-0,134475
-0,123381
-0,116247
-0,113768
-0,116184
-0,123254
-0,134285
-0,148192
-0,163613
-0,179033
-0,192941
-0,203973
-0,211046
-0,213464
-0,210987
-0,203857
-0,192766
-0,178800
-0,163321
-0,147842
-0,133876
-0,122788
-0,115659
-0,113185
-0,115606
-0,122681
-0,133717
-0,147630
-0,163055
-0,178481
-0,192394
-0,203431
-0,210509
-0,212932
-0,210461
-0,203335
-0,192250
-0,178289
-0,162815
-0,147341
-0,133381
-0,122297
-0,115173
-0,112704
-0,115130
-0,122211
-0,133252
-0,147169
-0,162600
-0,178031
-0,191949
-0,202991
-0,210074
-0,212502
-0,210036
-0,202915
-0,191835
-0,177879
-0,162410
-0,146942
-0,132986
-0,121907
-0,114788
-0,112324
-0,114755
-0,121841
-0,132887
-0,146810
-0,162245
-0,177681
-0,191604
-0,202651
-0,209739
-0,212172
-0,209710
-0,202595
-0,191520
-0,177568
-0,162104
-0,146640
-0,132689
-0,121615
-0,114501
-0,112042
-0,114477
-0,121567
-0,132618
-0,146545
-0,161984
-0,177424
-0,191352
-0,202403
-0,209494
-0,211931
-0,209473
-0,202361
-0,191289
-0,177340
-0,161879
-0,146417
-0,132468
-0,121396
-0,114283
-0,111825
-0,114261
-0,121351
-0,132400
-0,146326
-0,161764
-0,177200
-0,191124
-0,202170
-0,209256
-0,211686
-0,209220
-0,202098
-0,191015
-0,177053
-0,161577
-0,146099
-0,132131
-0,121038
-0,113901
-0,111417
-0,113823
-0,120881
-0,131894
-0,145780
-0,161174
-0,176562
-0,190433
-0,201421
-0,208444
-0,210804
-0,208263
-0,201059
-0,189887
-0,175828
