Signal
-0,152698
62
-0,21241
-0,107599
-0,15947
-0,167554
-0,113625
-0,188479
-0,139896
-0,212272
-0,124365
-0,157934
-0,141581
-0,171439
-0,226304
-0,275997
-0,130322
-0,184831
-0,14923
-0,117227
-0,15312
-0,124628
-0,224223
-0,144397
-0,131602
-0,131811
-0,14002
-0,141511
-0,187149
-0,188665
-0,188184
-0,07841
-0,190077
-0,176707
-0,157456
-0,17924
-0,23626
-0,162654
-0,243936
-0,152498
-0,139495
-0,154183
-0,146433
-0,190397
-0,16012
-0,169338
-0,224383
-0,192505
-0,246038
-0,180561
-0,112447
-0,174967
-0,155176
-0,070263
-0,173593
-0,159174
-0,124887
-0,114861
-0,190462
-0,184332
-0,164891
-0,059118
-0,060342
-0,122424
-0,148957
-0,1408
-0,13351
-0,05524
-0,178262
-0,129929
-0,134926
-0,10597
-0,059339
-0,034937
-0,076937
-0,050831
-0,110945
-0,111871
-0,063346
-0,09455
-0,185523
-0,083494
-0,142063
-0,034776
-0,088021
-0,035617
-0,115608
-0,095527
-0,160231
-0,026259
-0,01574
-0,084162
-0,100393
-0,072896
-0,006358
-0,091477
-0,081377
-0,083904
-0,040056
-0,127712
-0,063506
-0,102074
-0,130874
-0,108064
-0,061024
-0,034189
-0,028797
-0,086204
-0,052872
-0,134046
-0,025742
-0,057642
-0,073672
-0,080018
-0,053242
-0,180584
-0,102838
-0,083677
-0,184934
-0,134878
-0,080647
-0,086396
-0,04899
-0,119357
-0,08893
-0,111693
-0,012586
-0,106452
-0,073737
-0,133817
-0,111241
-0,191483
-0,071432
-0,179802
-0,160844
-0,13829
-0,192682
-0,138503
-0,111621
-0,208021
-0,063807
-0,034542
-0,207118
-0,068195
-0,143253
-0,122177
-0,13932
-0,138632
-0,116236
-0,251567
-0,132087
-0,175019
-0,22422
-0,20238
-0,156784
-0,16139
-0,112234
-0,122973
-0,168368
-0,128632
-0,123267
-0,212922
-0,124637
-0,085554
-0,101715
-0,152216
-0,141547
-0,173833
-0,15672
-0,18293
-0,15901
-0,15506
-0,142527
-0,172304
-0,202497
-0,198631
-0,182665
-0,18144
-0,163952
-0,158272
-0,172702
-0,062321
-0,266732
-0,171751
-0,161195
-0,154569
-0,191863
-0,122842
-0,113059
-0,126293
-0,269521
-0,27416
-0,153685
-0,121038
-0,249656
-0,092408
-0,136852
-0,216999
-0,194447
-0,241148
-0,203393
-0,279525
-0,154896
-0,248086
-0,211832
-0,116282
-0,11655
-0,283939
-0,125458
-0,178294
-0,314409
-0,219223
-0,157819
-0,135396
-0,236738
-0,151937
-0,274971
-0,156693
-0,192159
-0,167606
-0,245822
-0,148274
-0,130691
-0,131672
-0,103041
-0,123226
-0,085384
-0,079606
-0,060103
-0,011338
-0,038129
-0,010503
0,014216
0,051363
0,11321
0,187021
0,299175
0,281671
0,346548
0,511883
0,543325
0,625551
0,74657
0,814629
0,938923
0,926237
0,910377
0,929859
1,018485
1,125799
1,154688
1,241925
1,249746
1,197595
1,245594
1,196096
1,06886
1,008983
0,978651
0,954433
0,844596
0,786345
0,752033
0,562663
0,602611
0,420024
0,317011
0,328727
0,252972
0,116933
0,22362
0,140748
0,014962
-0,106073
0,052755
-0,10751
-0,110353
-0,156346
-0,192409
-0,274543
-0,288112
-0,219635
-0,284865
-0,207931
-0,213647
-0,234525
-0,284541
-0,264079
-0,269871
-0,201892
-0,228868
-0,30121
-0,253651
-0,128878
-0,275412
-0,116577
-0,213352
-0,204702
-0,223181
-0,249202
-0,133779
-0,218416
-0,145699
-0,192851
-0,159789
-0,189861
-0,179901
-0,21929
-0,209699
-0,194882
-0,199525
-0,183334
-0,171899
-0,159199
-0,247147
-0,17094
-0,23774
-0,276053
-0,186223
-0,187589
-0,21712
-0,22335
-0,12819
-0,262144
-0,19259
-0,163278
-0,229203
-0,212457
-0,141519
-0,243468
-0,172331
-0,187252
-0,195109
-0,150113
-0,164497
-0,208463
-0,180331
-0,215143
-0,143043
-0,108377
-0,178324
-0,183221
-0,171901
-0,156609
-0,228339
-0,216696
-0,114625
-0,184453
-0,119129
-0,210919
-0,115786
-0,045261
-0,121062
-0,210373
-0,24406
-0,206774
-0,111648
-0,251618
-0,153533
-0,230412
-0,146461
-0,174643
-0,132544
-0,126798
-0,108035
-0,138621
-0,259956
-0,259186
-0,192917
-0,178771
-0,149137
-0,207967
-0,190836
-0,181026
-0,280428
-0,127344
-0,188144
-0,080201
-0,115634
-0,209519
-0,100607
-0,200545
-0,117963
-0,185375
-0,150262
-0,165664
-0,111772
-0,201785
-0,099841
-0,084053
-0,122193
-0,208737
-0,146792
-0,118179
-0,160667
-0,138227
-0,225767
-0,205368
-0,179878
-0,136053
-0,173687
-0,189498
-0,194603
-0,135813
-0,11601
-0,173319
-0,179335
-0,141806
-0,127639
-0,098454
-0,207562
-0,13358
-0,237938
-0,167494
-0,177339
-0,186316
-0,136971
-0,072728
-0,142036
-0,168834
-0,141767
-0,077548
-0,18092
-0,140783
-0,11609
-0,157553
-0,123962
-0,17287
-0,125744
-0,053248
-0,165414
-0,158271
-0,17446
-0,05971
-0,074569
-0,04785
-0,110007
-0,102136
-0,150052
-0,137477
-0,130011
-0,152303
-0,032796
-0,113338
-0,159532
-0,132935
-0,130535
-0,111623
-0,080266
-0,112375
-0,099198
-0,053565
-0,048314
-0,135249
-0,066944
-0,029798
-0,045042
-0,118708
-0,043275
-0,013648
-0,153612
0,036616
-0,105485
-0,098308
-0,015353
-0,066237
-0,090176
0,024197
-0,094438
-0,018987
0,010061
-0,112012
-0,0607
-0,002171
-0,012645
-0,008705
0,002746
-0,022066
0,056715
-0,02553
0,025899
-0,059981
0,095191
-0,026193
-0,011444
0,043126
0,043329
0,02831
0,044197
0,036433
-0,066356
0,07821
0,019973
-0,023868
0,016761
0,059711
-0,018612
0,027063
0,078889
-0,060818
0,010824
-0,002552
0,066976
0,128948
0,068229
0,087618
0,067761
0,049241
-0,045021
0,066674
0,04515
0,058661
0,055324
0,087744
0,045969
0,088726
0,048578
0,056206
0,035992
0,035016
0,070954
0,069152
0,079265
0,021613
0,081289
0,047005
0,037253
0,054599
0,05799
0,055904
0,140894
0,076072
0,088426
0,094873
0,086233
-0,025075
0,021604
0,023853
0,026398
0,067902
0,099524
0,155314
0,154333
-0,037164
0,0529
0,026169
0,044184
0,104599
0,161404
0,032155
0,063307
0,104837
0,053085
0,120996
0,095095
0,0178
0,028361
0,061851
-0,041105
0,011873
0,068866
0,067725
0,055301
0,057369
0,091567
0,036747
0,039078
0,045727
-0,009837
0,026935
0,016156
0,068108
0,124847
-0,048856
0,084236
-0,019216
0,055423
-0,06404
-0,009605
0,088897
-0,024016
-0,005109
-0,094008
0,120734
-0,07708
-0,021995
-0,067516
0,033685
-0,046823
0,015597
-0,107678
-0,104018
-0,093441
-0,069252
-0,046344
-0,05712
-0,079694
-0,07743
-0,070957
-0,041969
-0,036573
-0,063639
-0,164723
-0,079556
-0,06671
-0,08898
-0,061881
-0,064326
-0,021602
-0,075421
-0,10553
-0,05183
-0,182316
-0,136708
-0,112888
-0,185616
-0,084842
-0,120531
-0,160883
-0,164973
-0,067765
-0,103441
-0,110646
-0,135584
-0,099515
-0,110841
-0,048433
-0,057364
-0,139034
-0,206561
-0,098559
-0,265151
-0,072663
-0,178335
-0,122205
-0,097766
-0,191219
-0,033012
-0,128278
-0,109142
-0,173951
-0,143603
-0,111717
-0,243222
-0,27878
-0,147591
-0,079877
-0,198667
-0,147107
-0,19111
-0,143017
-0,174691
-0,251227
-0,179248
-0,204591
-0,117029
-0,220027
-0,222071
-0,118544
-0,144102
-0,208567
-0,110506
-0,221363
-0,212148
-0,303289
-0,241394
-0,270283
-0,213464
-0,240986
-0,185168
-0,135809
-0,166917
-0,125973
-0,191848
-0,175549
-0,201032
-0,256725
-0,168543
-0,230512
-0,19252
-0,238018
-0,244142
-0,140723
-0,123371
-0,176698
-0,186692
-0,152325
-0,142014
-0,183287
-0,19572
-0,256849
-0,121497
-0,215911
-0,134065
-0,174151
-0,105874
-0,202964
-0,195441
-0,155385
-0,209921
-0,240534
-0,219375
-0,225706
-0,098565
-0,183147
-0,184156
-0,231327
-0,099239
-0,108712
-0,1364
-0,164896
-0,195438
-0,192046
-0,210977
-0,120977
-0,180748
-0,085681
-0,084865
-0,13906
-0,156092
-0,183154
-0,17945
-0,234938
-0,158577
-0,169693
-0,135437
-0,227884
-0,142448
-0,216766
-0,228259
-0,198528
-0,211088
-0,084184
-0,190646
-0,113471
-0,213666
-0,115906
-0,126501
-0,172339
-0,166753
-0,250701
-0,19964
-0,186947
-0,067316
-0,16697
-0,163339
-0,300602
-0,1332
-0,243836
-0,137075
-0,196926
-0,211131
-0,139046
-0,136927
-0,183235
-0,171152
-0,143776
-0,220538
-0,240701
-0,077227
-0,207012
-0,222112
-0,218433
-0,097915
-0,201956
-0,205344
-0,155729
-0,209392
-0,150505
-0,175211
-0,13842
-0,077341
-0,132312
-0,213602
-0,085622
-0,216884
-0,183146
-0,106026
-0,195839
-0,179919
-0,185542
-0,208976
-0,225364
-0,184656
-0,220865
-0,225509
-0,178115
-0,238461
-0,195008
-0,166773
-0,019065
-0,135144
-0,109406
-0,217003
-0,166084
-0,16281
-0,081888
-0,179618
-0,071346
-0,231562
-0,141302
-0,237929
-0,10693
-0,219965
-0,198136
-0,133157
-0,172346
-0,247834
-0,150557
-0,18596
-0,153534
-0,164101
-0,165248
-0,195471
-0,163239
-0,103809
-0,252147
-0,152244
-0,152683
-0,185551
-0,134477
-0,081836
-0,044516
-0,159482
-0,167317
-0,186357
-0,230967
-0,139193
-0,155264
-0,123624
-0,11884
-0,180454
-0,106998
-0,077613
-0,234692
-0,162888
-0,106926
-0,153594
-0,116906
-0,181292
-0,073563
-0,166151
-0,183131
-0,093787
-0,168587
-0,13413
-0,212202
-0,110774
-0,132325
-0,152432
-0,207039
-0,170689
-0,174644
-0,127177
-0,159128
-0,090086
-0,220116
-0,165292
-0,143311
-0,269267
-0,232428
-0,151893
-0,160841
-0,187002
-0,193994
-0,177212
-0,231315
-0,088888
-0,198272
-0,151384
-0,158133
-0,092866
-0,164627
-0,144711
-0,126957
-0,159953
-0,144043
-0,134927
-0,20463
-0,176937
-0,135792
-0,116719
-0,137462
-0,098197
-0,257542
-0,145118
-0,185411
-0,072902
-0,129422
-0,141416
-0,197478
-0,099819
-0,117301
-0,098503
-0,068755
-0,181675
-0,175583
-0,165076
-0,094914
-0,131776
-0,183887
-0,137616
-0,152345
-0,086537
-0,062254
-0,090145
-0,171663
-0,202528
-0,063551
-0,160895
-0,2179
-0,148784
-0,003699
-0,18752
-0,139305
-0,10205
-0,11581
-0,117553
-0,172688
-0,225529
-0,182679
-0,144887
-0,116343
-0,211672
-0,167224
-0,103333
-0,107684
-0,137235
-0,156242
-0,168103
-0,148997
-0,198428
-0,132189
-0,133596
-0,120718
-0,168736
-0,242795
-0,074728
-0,10935
-0,275421
-0,194873
-0,079046
-0,190665
-0,142832
-0,155056
-0,087308
-0,151692
-0,154023
-0,16277
-0,14198
-0,106906
-0,224092
-0,157225
-0,156134
-0,140134
-0,175108
-0,127135
-0,174501
-0,119808
-0,117205
-0,069087
-0,068873
-0,174976
-0,112181
-0,174766
-0,082742
-0,13037
-0,217056
-0,178004
-0,182263
-0,113254
-0,022261
-0,159101
-0,21345
-0,121211
-0,105294
-0,058295
-0,202924
-0,156753
-0,149563
-0,112792
-0,175146
-0,194823
-0,209037
-0,146427
-0,015854
-0,111629
-0,215321
-0,105974
-0,196193
-0,212378
-0,204006
-0,152732
-0,057828
-0,166982
-0,114692
-0,258692
-0,096584
-0,094202
-0,175545
-0,161704
-0,131887
-0,021165
-0,185554
-0,129728
-0,132326
-0,117747
-0,107969
-0,063304
-0,092626
-0,148601
-0,044158
-0,157831
-0,122251
-0,164174
-0,146241
-0,094889
-0,162441
-0,100719
-0,138856
-0,137762
-0,069078
-0,165594
-0,108503
-0,117966
-0,147798
-0,12679
-0,178479
-0,149082
-0,111924
-0,124327
-0,081567
-0,187731
-0,211641
-0,156641
-0,063227
-0,152629
-0,046129
-0,126132
-0,129123
-0,061812
-0,213436
-0,004759
-0,09548
-0,12424
-0,075699
-0,097561
-0,073949
-0,196542
-0,014021
-0,170861
-0,158097
-0,082127
-0,170201
-0,056182
-0,085569
-0,011869
-0,132277
-0,176105
-0,158187
-0,061423
-0,058061
-0,031063
-0,110101
-0,028165
0,051091
-0,121008
0,010431
-0,085623
-0,091351
-0,091249
-0,059941
-0,097856
-0,101686
-0,082566
-0,101464
-0,019111
-0,070567
-0,089072
0,003361
-0,039168
-0,068777
-0,101795
-0,033435
-0,134105
-0,052118
-0,041527
-0,062335
-0,07929
0,03793
0,017378
0,064131
-0,105505
0,065553
-0,07904
-0,092616
-0,047312
0,002155
-0,038852
-0,048768
-0,068123
-0,034127
0,012216
-0,008192
0,079669
-0,096159
-0,036615
0,008649
-0,049436
-0,043271
-0,032906
-0,041823
-0,087361
0,004581
-0,059172
-0,072637
-0,079037
-0,074314
-0,090675
-0,041959
-0,017121
-0,05431
-0,031123
-0,008174
-0,045834
-0,0354
-0,119853
0,00624
-0,120753
-0,070226
-0,025592
-0,13065
-0,116921
-0,016547
-0,02232
0,016178
-0,061799
-0,03107
-0,086077
-0,045526
-0,098065
-0,17112
-0,12385
-0,092469
-0,12949
-0,152389
-0,19478
-0,05529
-0,011801
-0,05784
-0,118982
-0,094299
-0,131189
-0,124141
-0,077323
-0,031773
-0,09882
-0,139414
-0,136142
-0,156002
-0,074334
-0,116669
-0,236466
-0,103118
-0,155064
-0,053544
-0,225849
-0,19655
-0,173301
-0,075696
-0,081909
-0,13038
0,03873
-0,108082
-0,191688
-0,030124
-0,017361
-0,177008
-0,131873
-0,078775
-0,120631
-0,201798
-0,165443
-0,107519
-0,199214
-0,081918
-0,095586
-0,117343
-0,237559
-0,113895
-0,082586
-0,102546
-0,026766
0,008419
-0,217694
-0,112265
-0,125157
-0,113675
-0,108952
-0,133562
-0,139032
-0,07362
-0,157853
-0,096987
-0,181954
-0,197275
-0,173699
-0,172676
-0,073242
-0,140965
-0,130237
-0,183022
-0,166165
-0,195683
-0,158388
-0,008352
-0,157286
-0,135016
-0,210169
-0,091059
-0,190288
-0,156072
-0,128218
-0,084367
-0,104221
-0,1084
-0,149124
-0,041965
-0,135398
0,004945
0,001866
0,023295
0,06685
0,148267
0,117479
0,194884
0,220096
0,224522
0,402694
0,4396
0,590879
0,547696
0,608153
0,686952
0,788781
0,882817
0,983822
0,994015
1,03024
1,133576
1,215692
1,212625
1,133287
1,266629
1,132365
1,164976
1,222374
1,106109
1,155439
1,031357
0,866219
0,895101
0,774383
0,760772
0,696846
0,561887
0,51987
0,399458
0,447503
0,275624
0,297575
0,258473
0,123609
0,122217
0,007399
0,071545
-0,004008
-0,02827
0,008676
-0,255399
-0,096606
-0,243353
-0,206963
-0,165989
-0,144568
-0,225795
-0,247868
-0,258387
-0,245601
-0,293885
-0,257972
-0,22563
-0,218726
-0,16217
-0,104901
-0,179066
-0,140397
-0,195975
-0,202355
-0,188125
-0,110554
-0,248679
-0,104144
-0,165578
-0,049668
-0,076165
-0,163743
-0,17149
-0,096055
-0,044713
-0,137399
-0,082935
-0,153854
-0,087342
-0,076543
-0,145873
-0,150727
-0,115931
-0,118599
-0,149858
-0,16154
-0,205185
-0,077983
-0,127458
-0,092727
-0,097961
-0,087997
-0,127914
-0,174075
-0,22404
-0,143748
-0,091058
-0,04581
-0,036337
-0,079495
-0,154008
-0,11814
-0,126835
-0,077453
-0,26887
-0,126765
-0,147469
-0,22167
-0,037435
-0,130256
-0,197625
-0,202819
-0,134763
-0,13319
-0,066035
-0,176088
-0,150065
-0,099123
-0,225949
-0,061177
-0,104989
-0,147643
-0,062734
-0,027531
-0,207749
-0,183704
-0,223156
-0,102898
-0,101884
-0,185513
-0,094804
-0,270724
-0,040442
-0,195603
-0,176636
-0,146158
-0,156971
-0,180706
-0,173784
-0,158753
-0,106123
-0,06766
-0,137148
-0,088665
-0,124034
-0,161561
-0,116095
-0,18202
-0,197628
-0,108136
-0,271763
-0,08991
-0,151593
-0,136099
-0,135706
-0,199073
-0,101682
-0,138667
-0,109122
-0,13819
-0,037497
-0,095111
-0,171339
-0,208813
-0,059907
-0,143924
-0,178884
-0,136891
-0,045197
-0,093929
-0,152171
-0,077324
0,012673
-0,13237
-0,148001
-0,188873
-0,142482
-0,188237
-0,114854
-0,115226
-0,087568
-0,053105
-0,102983
-0,117799
-0,064309
-0,089834
-0,094702
-0,091816
-0,086954
-0,072616
-0,027357
-0,010676
-0,134103
-0,171416
-0,000517
-0,116002
-0,032566
-0,062516
-0,085363
-0,102806
-0,080772
-0,137234
-0,14234
-0,096417
-0,107201
-0,059834
-0,092502
-0,070106
-0,009941
-0,041061
-0,011048
-0,155436
-0,023366
-0,140067
-0,109241
-0,106445
-0,092167
0,059548
-0,080668
0,002168
-0,073112
-0,011419
-0,07804
-0,006084
-0,047646
0,024024
-0,054059
0,024001
0,062581
-0,038963
0,055713
0,02627
-0,007954
0,125426
-0,03209
-0,01524
0,000548
0,04999
0,062346
0,047933
0,087842
-0,087522
-0,001312
0,008915
0,079812
0,027889
0,060289
0,002586
0,038318
0,013892
0,096481
0,02041
0,130222
0,076375
0,088776
0,032313
0,031836
0,025765
0,050138
0,206982
0,052383
0,117543
0,049176
0,011774
0,128519
0,094228
0,075411
0,080384
0,113446
0,068571
0,131314
0,031215
0,049476
0,017261
0,121783
0,043726
0,048548
0,116301
0,136752
0,171633
0,077404
0,100228
0,120501
0,0641
0,201521
0,08826
0,128266
0,152326
0,148478
0,077398
0,143902
0,119565
0,161847
0,082241
0,079934
0,149017
0,109217
0,081217
0,117097
0,025086
0,144347
0,199882
0,148112
0,066031
0,171986
0,153194
0,102534
0,060331
0,12212
0,161666
0,073763
0,125627
0,105668
0,003001
0,032419
0,196561
0,098171
0,132067
0,097176
0,128364
0,060052
0,12709
0,128927
0,026738
0,184555
0,081847
0,026271
0,113695
0,126102
0,142479
0,077092
0,094214
-0,017768
0,069043
-0,069539
0,068564
0,060759
0,029627
0,029099
-0,048587
0,054421
0,055111
0,017898
0,09657
0,004585
0,031073
0,094414
0,016664
-0,030731
0,030134
0,016918
0,031767
0,031504
-0,043731
-0,027709
0,051578
-0,010421
-0,031446
-0,021
-0,045139
0,131745
0,054764
-0,016842
-0,09418
-0,027829
0,01596
-0,072031
-0,000978
-0,009269
0,0012
0,007471
-0,095978
-0,013089
-0,051421
-0,018745
-0,027364
-0,060735
-0,029326
-0,097611
-0,04958
0,018502
-0,106824
-0,106556
-0,117926
-0,097341
-0,085689
-0,106054
-0,038672
-0,113032
-0,097876
-0,105977
-0,121231
-0,074247
-0,134197
-0,124606
-0,128773
-0,03858
-0,12791
-0,084359
-0,145453
-0,027326
-0,188759
-0,107692
-0,100725
-0,172669
-0,063341
-0,174311
-0,15826
-0,187629
-0,117638
-0,127972
-0,117599
-0,103243
-0,206013
-0,208932
-0,143788
-0,114761
-0,153177
-0,105114
-0,092919
-0,128939
-0,13086
-0,135127
-0,048708
-0,159842
-0,200439
-0,159081
-0,104018
-0,205947
-0,110103
-0,241686
-0,184073
-0,093262
-0,147915
-0,107754
-0,094961
-0,158257
-0,085204
-0,155018
-0,263592
-0,164175
-0,151616
-0,148522
-0,105174
-0,101627
-0,187575
-0,201677
-0,114635
-0,215305
-0,090738
-0,177445
-0,097202
-0,131584
-0,130513
-0,128803
-0,208472
-0,234098
-0,150943
-0,171755
-0,217041
-0,20694
-0,229938
-0,197401
-0,145288
-0,153723
-0,214646
-0,151775
-0,176829
-0,183684
-0,202122
-0,137079
-0,100807
-0,192517
-0,118139
-0,174488
-0,149244
-0,179983
-0,160649
-0,132592
-0,23559
-0,096899
-0,151015
-0,152176
-0,117505
-0,051494
-0,186331
-0,174624
-0,161833
-0,230266
-0,091216
-0,267465
-0,158258
-0,150839
-0,115658
-0,151292
-0,227549
-0,203934
-0,142139
-0,196909
-0,148003
-0,10606
-0,119746
-0,142784
-0,184258
-0,180939
-0,070513
-0,200942
-0,188667
-0,239349
-0,177985
-0,156401
-0,071424
-0,130907
-0,15406
-0,17587
-0,1234
-0,144355
-0,191384
-0,160208
-0,046935
-0,185136
-0,131377
-0,196886
-0,136936
-0,21123
-0,141232
-0,127227
-0,159754
-0,11817
-0,186182
-0,14443
-0,069341
-0,10261
-0,152341
-0,067331
-0,135047
-0,311099
-0,091203
-0,20323
-0,078866
-0,153525
-0,117665
-0,070263
-0,107748
-0,125108
-0,225164
-0,140708
-0,116682
-0,120183
-0,190656
-0,096034
-0,18401
-0,120106
-0,157082
-0,185329
-0,206484
-0,025871
-0,011016
-0,186742
-0,243911
-0,07165
-0,12143
-0,082165
-0,164185
-0,219514
-0,107295
-0,133701
-0,170312
-0,095129
-0,121906
-0,090784
-0,12741
-0,176435
-0,099171
-0,156778
-0,150455
-0,145265
-0,177461
-0,155693
-0,194335
-0,133304
-0,179631
-0,008217
-0,140007
-0,201454
-0,123419
-0,240425
-0,156793
-0,173556
-0,066498
-0,185394
-0,124116
-0,192531
-0,201881
-0,1047
-0,093417
-0,104845
-0,197903
-0,224153
-0,211428
-0,159699
-0,105733
-0,088225
-0,032173
-0,090037
-0,126021
-0,133953
-0,172871
-0,125227
-0,096153
-0,081438
-0,22934
-0,135743
-0,169864
-0,272347
-0,189709
-0,063582
-0,165115
-0,081182
-0,154774
-0,147433
-0,148335
-0,200819
-0,092723
-0,187561
-0,063367
-0,161593
-0,090089
-0,082941
-0,174926
-0,146946
-0,13266
-0,198664
-0,134657
-0,120262
-0,186928
-0,149361
-0,090711
-0,070338
-0,100515
-0,147683
-0,043768
-0,260328
-0,152158
-0,149738
-0,246868
-0,128214
-0,274078
-0,136245
-0,186065
-0,053977
-0,124135
-0,163299
-0,167681
-0,199931
-0,144831
-0,126399
-0,137738
-0,189037
-0,13849
-0,158104
-0,191031
-0,168795
-0,171693
-0,154033
-0,122274
-0,034555
-0,132836
-0,080903
-0,155342
-0,136696
-0,186395
-0,049432
-0,15946
-0,046551
-0,063487
-0,085448
-0,054042
-0,233913
-0,102181
-0,197152
-0,182548
-0,21678
-0,09279
-0,160664
-0,186081
-0,099081
-0,172556
-0,056444
-0,138392
-0,1033
-0,114148
-0,120914
-0,104168
-0,119952
-0,120246
-0,04784
-0,078757
-0,103928
-0,032188
-0,085598
-0,061919
-0,080825
-0,150277
-0,182013
-0,148893
-0,16257
-0,102462
-0,137684
-0,113532
-0,033574
-0,14067
-0,158044
-0,199215
-0,137222
-0,142402
-0,140014
-0,163499
-0,116158
-0,258309
-0,066167
-0,113715
-0,127435
-0,135431
-0,106771
-0,104221
-0,05848
-0,138901
-0,157398
-0,10488
-0,138798
-0,117096
-0,037664
0,011218
-0,166521
-0,091425
-0,129013
-0,181756
-0,053553
-0,076722
-0,155322
-0,049188
-0,216465
-0,109691
-0,196258
-0,136836
-0,235423
-0,11918
-0,190147
-0,155599
-0,17738
-0,21094
-0,201272
-0,190719
-0,151172
-0,210962
-0,106723
-0,134407
-0,13719
-0,01644
-0,137457
-0,049173
-0,163398
-0,116096
-0,116847
-0,134664
-0,090475
-0,080818
-0,218318
-0,164611
-0,083889
-0,054093
-0,191327
-0,197902
-0,072109
-0,081344
-0,155041
-0,14169
-0,075587
-0,086706
-0,149851
-0,149671
-0,159042
-0,108909
-0,083859
-0,186113
-0,101878
-0,096345
-0,080242
-0,10719
-0,138494
-0,129721
-0,1954
-0,136347
-0,12367
-0,107301
-0,145523
-0,167839
-0,116596
-0,117243
-0,061741
-0,130394
-0,052187
-0,186972
-0,114333
-0,072669
-0,012862
-0,120704
-0,096679
-0,107104
-0,078148
-0,099617
-0,160332
-0,178961
-0,157542
-0,04649
-0,100975
-0,113802
-0,143646
-0,171763
-0,16214
-0,066325
-0,124734
-0,113134
-0,114268
-0,149668
-0,034767
-0,203465
-0,077712
-0,127486
-0,083356
-0,048153
-0,071215
-0,084692
-0,082239
-0,163475
-0,065519
-0,200537
-0,064539
-0,209145
-0,099586
-0,112315
-0,086
-0,085983
-0,088597
-0,105893
-0,198655
-0,08552
-0,17092
-0,096497
-0,038717
0,006042
-0,009349
-0,115467
-0,078912
0,00734
0,003229
-0,090097
-0,096215
-0,119472
-0,121258
-0,061101
-0,079756
-0,060568
0,011678
-0,076482
-0,019725
-0,017781
-0,018623
-0,025779
-0,125037
-0,119752
-0,044708
-0,032531
-0,071994
-0,047336
-0,091945
-0,174577
-0,02268
-0,067936
-0,036361
-0,095716
-0,102972
-0,077706
-0,000464
-0,039814
-0,05385
-0,133001
-0,045105
-0,07553
-0,101282
-0,183037
-0,170008
-0,097778
-0,131497
-0,051005
-0,069355
-0,166306
-0,123027
-0,147654
-0,126295
-0,165238
-0,173871
-0,035677
-0,133913
-0,141478
-0,172433
-0,111397
-0,098318
-0,119768
-0,150346
-0,089666
-0,148283
-0,164008
-0,069227
-0,046055
-0,19246
-0,156618
-0,038712
-0,161837
-0,190872
-0,126445
-0,146026
-0,186065
-0,196515
-0,16253
-0,175461
-0,095598
-0,152851
-0,104364
-0,11888
-0,090457
-0,174337
-0,201697
-0,133219
-0,188983
-0,187884
-0,145126
-0,147219
-0,136696
-0,184353
-0,164707
-0,054817
-0,101245
-0,18256
-0,198351
-0,059174
-0,124754
-0,064633
-0,073115
-0,116309
-0,178357
-0,151667
-0,192728
-0,150739
-0,172855
-0,19933
-0,181804
-0,205922
-0,249451
-0,165443
-0,223091
-0,207101
-0,082658
-0,101532
-0,216457
-0,121206
-0,179467
-0,178873
-0,165561
-0,206228
-0,196081
-0,094446
-0,166286
-0,143146
-0,331973
-0,160537
-0,327412
-0,191088
-0,170996
-0,171628
-0,233902
-0,177089
-0,120764
-0,164997
-0,119471
-0,140212
-0,197369
0,00437
-0,017617
0,024239
0,057968
0,039179
0,054085
0,042035
0,241686
0,255896
0,217262
0,369798
0,443099
0,555155
0,558392
0,654399
0,718063
0,676818
0,905988
0,896435
0,899457
1,00216
1,092222
1,181501
1,118944
1,174737
1,206954
1,226916
1,149637
1,069667
1,072581
0,941424
0,923066
0,85382
0,814407
0,729058
0,655548
0,686649
0,557025
0,564183
0,368667
0,283347
0,309817
0,098191
0,117965
0,075202
0,030446
-0,038157
-0,105707
-0,100433
-0,137729
-0,168657
-0,158304
-0,270097
-0,208681
-0,318629
-0,298321
-0,285166
-0,246233
-0,266088
-0,17911
-0,267969
-0,308276
-0,217779
-0,315864
-0,309177
-0,213327
-0,275675
-0,219166
-0,189547
-0,247406
-0,165976
-0,248354
-0,254557
-0,217063
-0,176435
-0,196746
-0,20071
-0,185252
-0,221704
-0,196871
-0,201119
-0,108811
-0,164052
-0,119267
-0,213599
-0,173241
-0,080624
-0,303147
-0,231288
-0,170712
-0,188209
-0,193248
-0,260932
-0,187374
-0,177976
-0,154125
-0,205642
-0,155716
-0,209965
-0,151538
-0,158613
-0,166368
-0,160765
-0,179751
-0,216634
-0,232992
-0,199879
-0,131929
-0,126746
-0,236082
-0,14564
-0,181547
-0,163494
-0,260941
-0,236724
-0,241763
-0,166767
-0,119701
-0,221458
-0,088278
-0,133695
-0,204427
-0,244715
-0,083569
-0,25061
-0,225568
-0,186925
-0,078274
-0,229181
-0,199053
-0,233103
-0,154956
-0,184816
-0,207846
-0,242907
-0,235865
-0,168641
-0,224836
-0,149623
-0,140993
-0,200903
-0,084214
-0,330862
-0,194736
-0,286855
-0,252051
-0,099286
-0,153079
-0,152811
-0,169396
-0,14899
-0,163773
-0,202358
-0,299278
-0,061635
-0,19084
-0,107512
-0,137277
-0,207909
-0,177899
-0,240628
-0,254069
-0,110218
-0,189335
-0,085869
-0,220093
-0,217625
-0,173511
-0,208665
-0,145589
-0,178462
-0,182745
-0,205705
-0,126539
-0,108891
-0,143251
-0,171656
-0,123479
-0,205284
-0,117589
-0,221645
-0,223316
-0,16742
-0,245234
-0,098367
-0,17336
-0,222059
-0,292207
-0,125711
-0,189356
-0,088314
-0,120633
-0,170261
-0,14576
-0,196455
-0,06638
-0,129762
-0,109335
-0,273973
-0,149922
-0,161852
-0,169613
-0,115352
-0,065308
-0,144512
-0,093191
-0,1149
-0,107181
-0,095702
-0,114513
-0,1568
-0,040934
-0,188183
-0,201598
-0,163428
-0,088844
-0,038004
-0,145797
-0,11477
-0,216868
-0,132825
-0,144174
-0,02109
-0,152465
-0,089868
-0,11322
-0,113182
-0,036525
-0,063774
-0,062561
-0,065192
-0,146382
-0,072046
-0,115675
-0,106648
-0,112399
-0,109078
-0,153123
-0,115051
-0,027375
-0,013846
-0,056631
-0,012381
-0,082939
-0,01502
-0,08513
-0,086643
-0,016853
0,005209
-0,020746
-0,028403
-0,025843
-0,043936
-0,080893
0,008038
-0,044758
-0,065202
0,0231
0,017384
0,060423
-0,047979
-0,055616
0,006699
-0,041779
-0,042262
0,016166
-0,03083
-0,062899
-0,001308
0,023747
-0,047433
0,010003
-0,029469
-0,058116
0,007386
-0,045901
0,072645
-0,052727
-0,068108
-0,046956
0,107074
0,073915
0,010005
0,080153
0,043072
0,070253
0,119397
0,053677
0,034457
0,041085
0,00979
0,038097
0,051285
0,054855
0,046128
0,028454
0,085634
0,003875
-0,039807
-0,014544
0,069111
0,007448
0,045999
0,0417
0,042394
0,008887
-0,014268
-0,042133
0,005396
0,035851
0,0898
0,005337
0,070885
0,003812
0,033459
0,023224
0,022215
0,066684
0,118923
-0,077077
-0,011662
0,040466
-0,035111
0,063776
-0,104369
-0,000513
-0,033488
0,030922
0,034174
-0,08552
-0,090695
-0,042227
-0,038386
0,086906
0,00378
-0,025171
0,008481
0,028133
-0,039652
-0,047243
-0,075546
-0,041283
0,002505
-0,042976
-0,003611
0,037612
-0,07409
0,021493
-0,045363
0,034898
-0,01612
-0,032061
-0,087797
-0,084095
-0,007833
-0,096758
-0,06741
-0,154614
-0,127586
-0,0919
-0,157903
-0,07656
-0,065247
-0,124027
-0,138456
-0,079616
-0,124337
-0,148485
-0,109788
-0,075461
-0,083185
-0,194315
-0,152628
-0,167826
-0,089588
-0,116379
-0,138015
-0,130585
-0,166545
-0,129424
-0,203357
-0,151945
-0,089118
-0,115184
-0,184327
-0,208021
-0,184332
-0,217593
-0,218148
-0,165556
-0,162458
-0,219764
-0,202442
-0,207358
-0,12167
-0,212891
-0,270902
-0,156126
-0,201622
-0,167279
-0,1042
-0,215596
-0,169579
-0,238092
-0,18015
-0,246324
-0,206896
-0,204462
-0,264726
-0,242547
-0,177856
-0,131995
-0,261467
-0,126093
-0,275451
-0,200392
-0,345976
-0,18827
-0,221393
-0,317279
-0,235315
-0,267304
-0,252559
-0,29786
-0,201686
-0,154959
-0,249855
-0,096153
-0,217168
-0,192723
-0,136748
-0,212839
-0,276148
-0,176969
-0,198844
-0,173455
-0,299037
-0,220556
-0,233999
-0,230894
-0,238459
-0,216756
-0,258196
-0,227104
-0,258954
-0,255027
-0,251647
-0,15821
-0,231549
-0,188664
-0,132724
-0,265804
-0,241802
-0,223206
-0,174415
-0,284515
-0,304443
-0,231406
-0,326054
-0,297643
-0,25304
-0,315966
-0,215043
-0,254636
-0,287628
-0,24547
-0,284787
-0,227273
-0,193385
-0,239318
-0,309101
-0,236302
-0,223577
-0,128476
-0,237964
-0,247229
-0,243242
-0,205153
-0,220301
-0,391025
-0,226641
-0,110439
-0,324413
-0,212656
-0,210878
-0,219864
-0,260349
-0,312379
-0,221636
-0,236802
-0,308574
-0,305626
-0,204829
-0,250707
-0,196082
-0,291623
-0,17045
-0,187226
-0,250936
-0,175841
-0,185362
-0,207166
-0,268412
-0,249789
-0,193181
-0,319645
-0,171442
-0,276218
-0,233458
-0,21363
-0,302363
-0,29225
-0,237231
-0,241263
-0,262544
-0,310894
-0,285272
-0,299832
-0,273109
-0,242986
-0,224491
-0,242181
-0,209189
-0,171716
-0,214529
-0,345145
-0,210996
-0,252741
-0,235396
-0,186064
-0,351493
-0,252757
-0,246047
-0,141151
-0,26396
-0,178464
-0,282051
-0,215065
-0,252649
-0,267082
-0,150147
-0,18242
-0,276344
-0,241902
-0,250999
-0,276878
-0,307801
-0,298376
-0,258806
-0,225163
-0,251755
-0,228616
-0,268735
-0,297029
-0,212475
-0,226538
-0,269675
-0,163758
-0,29544
-0,265544
-0,215727
-0,285132
-0,265021
-0,275584
-0,083804
-0,302834
-0,22328
-0,19662
-0,200394
-0,25821
-0,216656
-0,258049
-0,245577
-0,364115
-0,256759
-0,276385
-0,376099
-0,252056
-0,277011
-0,241315
-0,243651
-0,233755
-0,186112
-0,161519
-0,174311
-0,177104
-0,301661
-0,285198
-0,242632
-0,197271
-0,282487
-0,205843
-0,281306
-0,261095
-0,256279
-0,304002
-0,263874
-0,231563
-0,286757
-0,239952
-0,348649
-0,184836
-0,223618
-0,228449
-0,245771
-0,167666
-0,240187
-0,261786
-0,289669
-0,237456
-0,236234
-0,296517
-0,190666
-0,21517
-0,250518
-0,214209
-0,248355
-0,2651
-0,298475
-0,277583
-0,196305
-0,302507
-0,314519
-0,210228
-0,217591
-0,262572
-0,294791
-0,219674
-0,238842
-0,214082
-0,280735
-0,292892
-0,274232
-0,28051
-0,286938
-0,232326
-0,285986
-0,165703
-0,241431
-0,342177
-0,298108
-0,250248
-0,300066
-0,262175
-0,222426
-0,312499
-0,220507
-0,248396
-0,295752
-0,365851
-0,137463
-0,251372
-0,308296
-0,273926
-0,244283
-0,271564
-0,204536
-0,254031
-0,257832
-0,263499
-0,317058
-0,196036
-0,274324
-0,272177
-0,325853
-0,330179
-0,276056
-0,212823
-0,205251
-0,330239
-0,229813
-0,205979
-0,157562
-0,301881
-0,226493
-0,300354
-0,265876
-0,257642
-0,236809
-0,274686
-0,281884
-0,290903
-0,234609
-0,232475
-0,287544
-0,287264
-0,364714
-0,279099
-0,291955
-0,334263
-0,317186
-0,269478
-0,212302
-0,292074
-0,202582
-0,350955
-0,218689
-0,247666
-0,286616
-0,243096
-0,199191
-0,150878
-0,153334
-0,257256
-0,141281
-0,259273
-0,272864
-0,206113
-0,276399
-0,286815
-0,271517
-0,180333
-0,280352
-0,354938
-0,292786
-0,197061
-0,237741
-0,29589
-0,272891
-0,27744
-0,340706
-0,248185
-0,186712
-0,353538
-0,273437
-0,292161
-0,295263
-0,192376
-0,350557
-0,330045
-0,259295
-0,26208
-0,247478
-0,246784
-0,250176
-0,233258
-0,241304
-0,234768
-0,247517
-0,26751
-0,179906
-0,346922
-0,250213
-0,210244
-0,201385
-0,369144
-0,255673
-0,243916
-0,251041
-0,240172
-0,281598
-0,314327
-0,291886
-0,373398
-0,284424
-0,352565
-0,274051
-0,266947
-0,303734
-0,238968
-0,270943
-0,244717
-0,236845
-0,289594
-0,292718
-0,326329
-0,279015
-0,275814
-0,237232
-0,333441
-0,228119
-0,259378
-0,296272
-0,108434
-0,260441
-0,204758
-0,147265
-0,250879
-0,218873
-0,351268
-0,287832
-0,243594
-0,237108
-0,305994
-0,241196
-0,208928
-0,189558
-0,253346
-0,226269
-0,144117
-0,296754
-0,280537
-0,279322
-0,256091
-0,25917
-0,260683
-0,281084
-0,334367
-0,264641
-0,279468
-0,285359
-0,297356
-0,195232
-0,210534
-0,272806
-0,243312
-0,277311
-0,234901
-0,236668
-0,21116
-0,246406
-0,221789
-0,258982
-0,370797
-0,264049
-0,171378
-0,260271
-0,154119
-0,236556
-0,190224
-0,280252
-0,250424
-0,209324
-0,313602
-0,198057
-0,198047
-0,182795
-0,176511
-0,181191
-0,207785
-0,208152
-0,247789
-0,242569
-0,220815
-0,252527
-0,204822
-0,110572
-0,197318
-0,238643
-0,214701
-0,281651
-0,278489
-0,197589
-0,233034
-0,156382
-0,212841
-0,210584
-0,202975
-0,186604
-0,215614
-0,223818
-0,32173
-0,130281
-0,202643
-0,222696
-0,15208
-0,252174
-0,289658
-0,18532
-0,229788
-0,191643
-0,1795
-0,182117
-0,075063
-0,209729
-0,236359
-0,172162
-0,19068
-0,164937
-0,21023
-0,206447
-0,145885
-0,174102
-0,154966
-0,127147
-0,212264
-0,249136
-0,122472
-0,219887
-0,243815
-0,177586
-0,229364
-0,211432
-0,188107
-0,165951
-0,148962
-0,195768
-0,187432
-0,202283
-0,20293
-0,167921
-0,111676
-0,23291
-0,263556
-0,213785
-0,276202
-0,227395
-0,214183
-0,156241
-0,226711
-0,185557
-0,208875
-0,112939
-0,25795
-0,231685
-0,282831
-0,184508
-0,288055
-0,127611
-0,326726
-0,271819
-0,305631
-0,205484
-0,26854
-0,25634
-0,191542
-0,202445
-0,277782
-0,207216
-0,209899
-0,316208
-0,345238
-0,255581
-0,307508
-0,181653
-0,284249
-0,232395
-0,326329
-0,208056
-0,295146
-0,217344
-0,186565
-0,214517
-0,215011
-0,245464
-0,353805
-0,223794
-0,185275
-0,263552
-0,2406
-0,290428
-0,22763
-0,117813
-0,302184
-0,315243
-0,217752
-0,296204
-0,263622
-0,292632
-0,263462
-0,291669
-0,184052
-0,340995
-0,266456
-0,322206
-0,258387
-0,26768
-0,276049
-0,272716
-0,264093
-0,208626
-0,304504
-0,311747
-0,311834
-0,315956
-0,243138
-0,273588
-0,341255
-0,270331
-0,304852
-0,227252
-0,241093
-0,217459
-0,339606
-0,272929
-0,410631
-0,30381
-0,276014
-0,332903
-0,310724
-0,349823
-0,370424
-0,333125
-0,296252
-0,27122
-0,255711
-0,280366
-0,319123
-0,324188
-0,317566
-0,23246
-0,386118
-0,322951
-0,281695
-0,309838
-0,269643
-0,20016
-0,224039
-0,218527
-0,147189
-0,219647
-0,087097
-0,1172
-0,027394
0,011816
0,033503
0,188272
0,240668
0,265632
0,444771
0,380237
0,543539
0,545924
0,649625
0,680798
0,776015
0,852887
0,94491
0,867352
1,06299
0,981814
1,068108
1,016342
1,057648
0,995862
1,042332
0,961095
0,999277
0,870151
0,843605
0,752567
0,638167
0,6078
0,595537
0,423479
0,396921
0,255713
0,223442
0,20719
0,087452
0,072881
0,024244
-0,018836
-0,068243
-0,191412
-0,165483
-0,224767
-0,253347
-0,237557
-0,297455
-0,237185
-0,252672
-0,398146
-0,349969
-0,478391
-0,402553
-0,439152
-0,356967
-0,385406
-0,307726
-0,412433
-0,371543
-0,280717
-0,330845
-0,279165
-0,395934
-0,318565
-0,383224
-0,253638
-0,272478
-0,330489
-0,286823
-0,278456
-0,315023
-0,34312
-0,27163
-0,307862
-0,249205
-0,368449
-0,302098
-0,210861
-0,275811
-0,323597
-0,229201
-0,341648
-0,282112
-0,314527
-0,326663
-0,317831
-0,231483
-0,324438
-0,373955
-0,367304
-0,373115
-0,323453
-0,307885
-0,284805
-0,354491
-0,241911
-0,265802
-0,234797
-0,291882
-0,384021
-0,31517
-0,352386
-0,311359
-0,273891
-0,273576
-0,419343
-0,324759
-0,288026
-0,189468
-0,336819
-0,385858
-0,20044
-0,312899
-0,336963
-0,380044
-0,401644
-0,393859
-0,406325
-0,27127
-0,331707
-0,312658
-0,268877
-0,239658
-0,400364
-0,412472
-0,217169
-0,267513
-0,310854
-0,374318
-0,340444
-0,261423
-0,324515
-0,29258
-0,279901
-0,317879
-0,338571
-0,336148
-0,259326
-0,353454
-0,282928
-0,269251
-0,340813
-0,253209
-0,32038
-0,311256
-0,289214
-0,240713
-0,340014
-0,277189
-0,228792
-0,333276
-0,269757
-0,29389
-0,314079
-0,196537
-0,28125
-0,209663
-0,328604
-0,325205
-0,194064
-0,261817
-0,321122
-0,317869
-0,29183
-0,445735
-0,263168
-0,326802
-0,289952
-0,283913
-0,34584
-0,25973
-0,31904
-0,321261
-0,305516
-0,277392
-0,236156
-0,231076
-0,289943
-0,329025
-0,290844
-0,32715
-0,317712
-0,229147
-0,237173
-0,301164
-0,2661
-0,2489
-0,299618
-0,214123
-0,319665
-0,296376
-0,243508
-0,204702
-0,281944
-0,244967
-0,306238
-0,259848
-0,322632
-0,209529
-0,192427
-0,298319
-0,272555
-0,293898
-0,245275
-0,19213
-0,357897
-0,263647
-0,240392
-0,246838
-0,29588
-0,285126
-0,232882
-0,240113
-0,247364
-0,306123
-0,178655
-0,351609
-0,252571
-0,207809
-0,253516
-0,231285
-0,2221
-0,275441
-0,244651
-0,234487
-0,297017
-0,165225
-0,125955
-0,245367
-0,102131
-0,198407
-0,264132
-0,07191
-0,155823
-0,239136
-0,227464
-0,2395
-0,208824
-0,197177
-0,134002
-0,126431
-0,147323
-0,139316
-0,150847
-0,164938
-0,172112
-0,197467
-0,092347
-0,10087
-0,131048
-0,171049
-0,048225
-0,18121
-0,164494
-0,161974
-0,08222
-0,272666
-0,086649
-0,087572
-0,126822
-0,145484
-0,121764
-0,11233
-0,105226
-0,114659
-0,090212
-0,08602
-0,11574
-0,029897
-0,049803
0,06736
-0,079099
-0,119681
-0,057342
-0,081982
-0,148441
-0,069341
-0,064079
-0,048362
-0,095822
-0,102223
-0,070656
-0,103215
-0,041497
-0,04057
0,012623
-0,086839
-0,083299
-0,030326
-0,078754
-0,104175
-0,07809
-0,086159
-0,04879
0,018344
-0,001025
-0,057566
-0,094912
-0,139171
-0,104376
-0,081102
-0,028687
-0,077645
0,083615
-0,212663
-0,161474
-0,026931
-0,086762
-0,105239
-0,163536
-0,073765
-0,061888
-0,108377
-0,079227
-0,132525
-0,025568
-0,141148
-0,021858
-0,084696
-0,058657
-0,137153
-0,12638
-0,076827
-0,110664
-0,095103
-0,089286
-0,038936
-0,002299
-0,112549
-0,083672
-0,188169
-0,10859
-0,09883
-0,096039
-0,073529
-0,082552
-0,057025
-0,166906
-0,103261
-0,173987
-0,136794
-0,226607
-0,203158
-0,039503
-0,097694
-0,219353
-0,116169
-0,205885
-0,201284
-0,107144
-0,199638
-0,107246
-0,131055
-0,213144
-0,130327
-0,146172
-0,168484
-0,149774
-0,188649
-0,185642
-0,181868
-0,179246
-0,133744
-0,284881
-0,143427
-0,144001
-0,103822
-0,241555
-0,21422
-0,253734
-0,208543
-0,291087
-0,273401
-0,085333
-0,250198
-0,162975
-0,322498
-0,184533
-0,277713
-0,309652
-0,257165
-0,192406
-0,318817
-0,18423
-0,233257
-0,187083
-0,293177
-0,248556
-0,309756
-0,285285
-0,299367
-0,235063
-0,342833
-0,162652
-0,330327
-0,328243
-0,314228
-0,248384
-0,285365
-0,203971
-0,297041
-0,330919
-0,261124
-0,241724
-0,267744
-0,242207
-0,224945
-0,273269
-0,270161
-0,321811
-0,322394
-0,341769
-0,252593
-0,379759
-0,271489
-0,258386
-0,333104
-0,252292
-0,286865
-0,298825
-0,239427
-0,421801
-0,262426
-0,29685
-0,298428
-0,278188
-0,345687
-0,309649
-0,381951
-0,365653
-0,382262
-0,281613
-0,220104
-0,355476
-0,342907
-0,366752
-0,302931
-0,205096
-0,231713
-0,353404
-0,351478
-0,31317
-0,317663
-0,204542
-0,398252
-0,339109
-0,336557
-0,317941
-0,321034
-0,376914
-0,352724
-0,33792
-0,301301
-0,27319
-0,372223
-0,389084
-0,349263
-0,324308
-0,307498
-0,2703
-0,314653
-0,362636
-0,253611
-0,366845
-0,291379
-0,381212
-0,309813
-0,351308
-0,319138
-0,314536
-0,340173
-0,342193
-0,314743
-0,354296
-0,345673
-0,383278
-0,265117
-0,406641
-0,281127
-0,280955
-0,397974
-0,374707
-0,382621
-0,261064
-0,32188
-0,354031
-0,299441
-0,288567
-0,393749
-0,330189
-0,323961
-0,354213
-0,276515
-0,302484
-0,330814
-0,32034
-0,275453
-0,321687
-0,369732
-0,319358
-0,230014
-0,315477
-0,375453
-0,192476
-0,310796
-0,276088
-0,296208
-0,274027
-0,40962
-0,253457
-0,265012
-0,31809
-0,253204
-0,276795
-0,274686
-0,301389
-0,314587
-0,331946
-0,376408
-0,396001
-0,27554
-0,327348
-0,374437
-0,272371
-0,204413
-0,33713
-0,330649
-0,320135
-0,247453
-0,330371
-0,209864
-0,338323
-0,314511
-0,32311
-0,352059
-0,317991
-0,270559
-0,261624
-0,328635
-0,389586
-0,320384
-0,222416
-0,268307
-0,397592
-0,309737
-0,327618
-0,295033
-0,353723
-0,252275
-0,301018
-0,412062
-0,352314
-0,337317
-0,390065
-0,279133
-0,340483
-0,317913
-0,297719
-0,324717
-0,335555
-0,28303
-0,436618
-0,360704
-0,265248
-0,324922
-0,327766
-0,366296
-0,330029
-0,290186
-0,371966
-0,289108
-0,336404
-0,379052
-0,252689
-0,262073
-0,309602
-0,333251
-0,373091
-0,243065
-0,332371
-0,381973
-0,28781
-0,248857
-0,30603
-0,325415
-0,338261
-0,355501
-0,2936
-0,315852
-0,301734
-0,320294
-0,331453
-0,28147
-0,294966
-0,257773
-0,333456
-0,353839
-0,329395
-0,452679
-0,318847
-0,298287
-0,396557
-0,309206
-0,289134
-0,29199
-0,326406
-0,319374
-0,242371
-0,280623
-0,33898
-0,289197
-0,35296
-0,392453
-0,26994
-0,256971
-0,390672
-0,358717
-0,23075
-0,250526
-0,304
-0,248154
-0,246513
-0,360416
-0,421939
-0,313168
-0,285439
-0,37466
-0,298253
-0,3797
-0,278524
-0,361435
-0,303897
-0,35851
-0,276932
-0,351334
-0,318214
-0,298242
-0,393146
-0,30832
-0,30028
-0,256075
-0,31792
-0,359512
-0,205167
-0,335098
-0,32849
-0,241858
-0,28222
-0,307087
-0,289231
-0,253461
-0,35406
-0,351856
-0,354796
-0,265902
-0,332315
-0,280163
-0,345844
-0,252735
-0,268149
-0,322759
-0,294976
-0,379166
-0,295808
-0,305181
-0,364248
-0,313996
-0,250893
-0,352265
-0,291217
-0,350837
-0,28281
-0,397733
-0,325379
-0,363078
-0,289178
-0,336347
-0,267659
-0,363518
-0,342913
-0,281187
-0,377581
-0,254702
-0,340096
-0,238994
-0,307031
-0,301746
-0,315633
-0,257888
-0,400044
-0,412387
-0,267089
-0,318997
-0,358062
-0,310857
-0,291609
-0,253441
-0,371753
-0,3305
-0,28276
-0,22982
-0,278379
-0,233845
-0,300832
-0,257556
-0,361264
-0,279321
-0,261505
-0,296836
-0,318639
-0,249981
-0,281708
-0,187677
-0,306874
-0,277805
-0,296037
-0,306746
-0,324044
-0,339327
-0,3941
-0,223507
-0,349089
-0,315185
-0,381056
-0,280317
-0,332997
-0,335832
-0,274153
-0,274676
-0,254487
-0,337262
-0,362831
-0,326784
-0,348666
-0,279035
-0,252327
-0,32159
-0,331299
-0,302322
-0,278011
-0,28342
-0,360511
-0,285688
-0,262627
-0,262861
-0,368342
-0,41536
-0,279962
-0,374819
-0,317434
-0,291554
-0,238118
-0,305877
-0,244722
-0,326441
-0,282132
-0,246786
-0,36341
-0,369269
-0,379687
-0,320401
-0,291772
-0,27263
-0,264222
-0,260008
-0,304114
-0,270565
-0,283962
-0,341959
-0,314841
-0,436491
-0,246366
-0,30604
-0,3756
-0,345135
-0,31108
-0,313441
-0,250674
-0,224038
-0,264375
-0,32259
-0,309523
-0,256625
-0,152786
-0,285391
-0,315101
-0,197887
-0,259451
-0,263257
-0,242899
-0,226536
-0,18291
-0,285655
-0,347314
-0,290677
-0,320856
-0,282685
-0,334236
-0,337279
-0,328536
-0,248203
-0,315283
-0,270604
-0,321817
-0,299196
-0,267369
-0,332792
-0,265655
-0,240911
-0,298254
-0,326724
-0,210082
-0,25765
-0,354547
-0,258899
-0,278398
-0,265599
-0,284701
-0,348833
-0,282219
-0,204284
-0,195697
-0,254814
-0,256552
-0,241154
-0,254998
-0,343935
-0,18992
-0,221733
-0,19807
-0,299144
-0,287893
-0,242563
-0,274834
-0,210817
-0,217069
-0,247592
-0,225966
-0,138848
-0,232216
-0,277326
-0,256032
-0,279582
-0,210592
-0,169505
-0,265905
-0,257371
-0,197809
-0,213508
-0,263161
-0,169628
-0,255525
-0,277584
-0,235957
-0,188711
-0,19965
-0,161155
-0,275336
-0,197229
-0,168353
-0,229844
-0,187275
-0,264654
-0,136623
-0,203544
-0,208111
-0,190738
-0,146799
-0,188286
-0,13799
-0,185261
-0,174308
-0,135609
-0,138518
-0,167336
-0,268233
-0,238024
-0,193823
-0,259436
-0,034694
-0,128398
-0,14045
-0,205442
-0,246883
-0,17725
-0,194291
-0,145867
-0,223621
-0,257432
-0,095375
-0,266547
-0,237929
-0,261806
-0,156904
-0,252726
-0,239633
-0,207186
-0,238421
-0,230662
-0,182785
-0,160266
-0,226558
-0,312402
-0,257885
-0,228861
-0,305184
-0,284424
-0,148684
-0,215936
-0,215871
-0,264187
-0,186997
-0,235176
-0,158421
-0,176871
-0,166398
-0,318668
-0,195859
-0,302699
-0,302009
-0,226642
-0,26208
-0,17446
-0,236363
-0,164415
-0,244951
-0,240465
-0,24564
-0,27649
-0,223816
-0,23708
-0,408064
-0,261346
-0,281059
-0,205715
-0,192342
-0,258103
-0,265483
-0,208567
-0,221712
-0,188665
-0,267005
-0,31268
-0,369596
-0,247251
-0,28299
-0,26187
-0,347027
-0,246288
-0,298163
-0,298306
-0,265178
-0,229219
-0,3348
-0,206987
-0,24585
-0,265382
-0,23528
-0,271649
-0,318825
-0,303604
-0,353083
-0,338651
-0,250683
-0,376592
-0,311494
-0,302353
-0,301531
-0,190403
-0,305644
-0,234412
-0,254483
-0,247021
-0,286891
-0,225698
-0,366319
-0,225716
-0,284104
-0,368627
-0,198748
-0,260796
-0,268486
-0,312103
-0,292002
-0,290232
-0,267348
-0,315602
-0,302463
-0,285441
-0,239758
-0,29068
-0,397095
-0,3458
-0,345827
-0,268747
-0,348587
-0,318631
-0,304961
-0,26249
-0,238831
-0,334193
-0,253091
-0,210204
-0,248837
-0,21633
-0,119085
-0,216799
-0,014959
-0,109867
-0,017464
-0,021207
0,046972
0,177757
0,148388
0,186233
0,307204
0,426602
0,407114
0,485981
0,538573
0,598691
0,788357
0,812468
0,883942
0,992129
0,845964
1,039768
1,04115
1,056015
1,016843
1,052028
1,043443
1,169781
1,012008
0,93479
0,89732
0,929482
0,766363
0,66443
0,615937
0,587818
0,44339
0,442672
0,450577
0,298983
0,174201
0,131265
0,002573
0,035567
-0,001596
-0,117674
-0,125092
-0,158167
-0,219785
-0,194314
-0,306729
-0,305362
-0,338552
-0,280161
-0,314487
-0,427478
-0,3852
-0,364623
-0,292227
-0,279248
-0,350936
-0,391026
-0,371708
-0,343688
-0,359957
-0,282492
-0,359866
-0,289144
-0,20488
-0,23298
-0,251011
-0,290074
-0,326589
-0,257552
-0,283026
-0,323773
-0,263367
-0,359021
-0,27973
-0,204859
-0,199229
-0,301669
-0,206636
-0,255139
-0,245392
-0,332624
-0,276117
-0,281281
-0,26523
-0,299298
-0,270778
-0,222592
-0,311019
-0,280933
-0,271431
-0,261551
-0,381193
-0,250144
-0,35685
-0,277088
-0,265734
-0,273137
-0,273117
-0,301414
-0,372515
-0,217235
-0,346354
-0,291293
-0,249469
-0,299005
-0,223419
-0,342636
-0,268124
-0,350373
-0,314516
-0,301788
-0,198636
-0,261161
-0,270462
-0,340746
-0,234972
-0,295609
-0,139222
-0,248153
-0,219289
-0,23196
-0,363956
-0,279007
-0,302882
-0,186145
-0,307943
-0,194449
-0,229018
-0,292053
-0,235816
-0,278292
-0,258009
-0,265019
-0,236048
-0,180321
-0,311681
-0,290366
-0,251306
-0,219295
-0,30014
-0,27761
-0,348686
-0,302579
-0,226833
-0,212812
-0,363977
-0,255385
-0,244683
-0,377336
-0,280875
-0,227305
-0,259325
-0,275003
-0,292228
-0,264489
-0,228466
-0,26169
-0,203009
-0,239145
-0,323062
-0,212948
-0,259688
-0,240021
-0,28789
-0,118362
-0,299142
-0,360812
-0,274899
-0,184847
-0,282064
-0,266461
-0,234537
-0,267766
-0,381375
-0,189233
-0,222654
-0,239381
-0,227326
-0,211098
-0,200194
-0,221908
-0,289968
-0,320014
-0,271415
-0,166038
-0,291925
-0,234593
-0,204555
-0,18905
-0,250817
-0,248474
-0,270369
-0,235073
-0,290429
-0,175154
-0,258959
-0,197649
-0,238748
-0,228669
-0,249325
-0,180825
-0,192169
-0,232054
-0,212853
-0,120518
-0,134862
-0,261556
-0,165658
-0,242689
-0,242934
-0,313945
-0,239237
-0,183755
-0,166935
-0,09875
-0,215262
-0,153388
-0,122485
-0,190593
-0,147007
-0,27352
-0,054858
-0,169007
-0,163476
-0,11808
-0,191998
-0,033396
-0,185806
-0,096817
-0,037386
-0,193777
-0,126193
-0,113045
-0,184087
-0,144031
-0,222173
-0,199716
-0,076883
-0,094091
-0,147535
-0,125726
-0,065482
-0,114793
-0,07461
-0,201931
-0,117097
-0,083023
-0,119005
-0,078556
-0,050759
-0,099648
-0,128854
-0,089897
-0,099722
-0,174815
0,000159
-0,073361
-0,148714
-0,030721
-0,093615
-0,084123
-0,084567
0,024923
-0,112968
-0,025323
-0,022582
-0,070105
-0,124935
0,058729
-0,061684
-0,017872
0,122877
0,071533
-0,021157
-0,023097
-0,025987
-0,07849
0,037785
-0,080724
-0,008011
0,007796
-0,078302
-0,001762
-0,03203
-0,008211
0,022042
-0,042328
0,058721
0,009837
-0,008133
0,004777
0,003245
0,075048
-0,028009
-0,041057
-0,023337
-0,079276
0,008361
-0,009698
0,015065
0,010166
-0,015268
-0,043791
-0,033277
-0,02138
0,050174
0,041376
-0,015157
-0,108091
0,021811
0,010161
0,013135
-0,045857
-0,046513
0,07905
-0,010955
-0,03601
0,001698
-0,013335
-0,009667
-0,021203
0,004195
0,025555
-0,105577
0,116425
-0,04051
-0,012428
0,061957
-0,016969
-0,040637
-0,007512
-0,072523
-0,029323
-0,064097
-0,062486
-0,074011
-0,059785
-0,033791
-0,088028
-0,015916
-0,043385
-0,004861
-0,060015
-0,066345
-0,088398
-0,068885
-0,088937
-0,057937
-0,195997
-0,019365
-0,076641
-0,08604
-0,025726
-0,055003
-0,133106
-0,169373
-0,107146
-0,195816
-0,053329
-0,019045
-0,036604
-0,148946
-0,014357
-0,088305
-0,097848
-0,118655
-0,210179
-0,177991
-0,145685
-0,170429
-0,096233
-0,154084
-0,157187
-0,166855
-0,180462
-0,102616
-0,168951
-0,177625
-0,096558
-0,148198
-0,141907
-0,157331
-0,137315
-0,152339
-0,189613
-0,197119
-0,123174
-0,172002
-0,136474
-0,28025
-0,16565
-0,218214
-0,02755
-0,140173
-0,249218
-0,227442
-0,193827
-0,146744
-0,205816
-0,121577
-0,171525
-0,245056
-0,163183
-0,27542
-0,267888
-0,197248
-0,190346
-0,17004
-0,234875
-0,306176
-0,155088
-0,153255
-0,168469
-0,122921
-0,321861
-0,127927
-0,281261
-0,213446
-0,15488
-0,27207
-0,152604
-0,222029
-0,245929
-0,27241
-0,259755
-0,270477
-0,231055
-0,218734
-0,140404
-0,272153
-0,230353
-0,171382
-0,228685
-0,155907
-0,177364
-0,260174
-0,161449
-0,229913
-0,201689
-0,26356
-0,234013
-0,246401
-0,278315
-0,241158
-0,303821
-0,157964
-0,291335
-0,16441
-0,235564
-0,339086
-0,270246
-0,21786
-0,263018
-0,201379
-0,216678
-0,240149
-0,24162
-0,351311
-0,264501
-0,241483
-0,205776
-0,22531
-0,241574
-0,338764
-0,271618
-0,236735
-0,162261
-0,281507
-0,188076
-0,121784
-0,217288
-0,272238
-0,289302
-0,281756
-0,253298
-0,28398
-0,290668
-0,217922
-0,162736
-0,211843
-0,305142
-0,209021
-0,264726
-0,192272
-0,204285
-0,226113
-0,282219
-0,223195
-0,270472
-0,302047
-0,282758
-0,341827
-0,201844
-0,236586
-0,344393
-0,241455
-0,212972
-0,193948
-0,283985
-0,260527
-0,212507
-0,211691
-0,164645
-0,307133
-0,214588
-0,275473
-0,270634
-0,234111
-0,314777
-0,270998
-0,356427
-0,225525
-0,203404
-0,24426
-0,12687
-0,261177
-0,25917
-0,227522
-0,224942
-0,237258
-0,239567
-0,136326
-0,220337
-0,147231
-0,123338
-0,230534
-0,269912
-0,158188
-0,223097
-0,152349
-0,185874
-0,191234
-0,299269
-0,224656
-0,271574
-0,192858
-0,238012
-0,173622
-0,171633
-0,24492
-0,178922
-0,303214
-0,2127
-0,2921
-0,204244
-0,301102
-0,16423
-0,202712
-0,266036
-0,254754
-0,273474
-0,30187
-0,260903
-0,199081
-0,312297
-0,182845
-0,133479
-0,151926
-0,337086
-0,277237
-0,252855
-0,213943
-0,264508
-0,184296
-0,197724
-0,212766
-0,15926
-0,201842
-0,191681
-0,309898
-0,134112
-0,155819
-0,209977
-0,225591
-0,177174
-0,213305
-0,270838
-0,329033
-0,27023
-0,317492
-0,243973
-0,326298
-0,237713
-0,198703
-0,236457
-0,221595
-0,205208
-0,256139
-0,263799
-0,226309
-0,154291
-0,269396
-0,174204
-0,164834
-0,319896
-0,202411
-0,203433
-0,134093
-0,18811
-0,258769
-0,263621
-0,266444
-0,216996
-0,233767
-0,219864
-0,242242
-0,257464
-0,281111
-0,100961
-0,371104
-0,160659
-0,287161
-0,16961
-0,218802
-0,225359
-0,142568
-0,195906
-0,259362
-0,177405
-0,226694
-0,159211
-0,263058
-0,274671
-0,22286
-0,256047
-0,274164
-0,214693
-0,207523
-0,147204
-0,190582
-0,322705
-0,136599
-0,195959
-0,14787
-0,219021
-0,195972
-0,175106
-0,172231
-0,25362
-0,253255
-0,183448
-0,190282
-0,197457
-0,247223
-0,174951
-0,160904
-0,090803
-0,330996
-0,12728
-0,240758
-0,17795
-0,225359
-0,241494
-0,258626
-0,229137
-0,15751
-0,241944
-0,272281
-0,137032
-0,125925
-0,264246
-0,259455
-0,211367
-0,249036
-0,280149
-0,270306
-0,136393
-0,159266
-0,131509
-0,157527
-0,189729
-0,212098
-0,141594
-0,261233
-0,298211
-0,27343
-0,220997
-0,144789
-0,198912
-0,132434
-0,158334
-0,192801
-0,182721
-0,14875
-0,353129
-0,244385
-0,172244
-0,148079
-0,185644
-0,172796
-0,178519
-0,241628
-0,190007
-0,213044
-0,346534
-0,176406
-0,242934
-0,148187
-0,215152
-0,114946
-0,131676
-0,290918
-0,17797
-0,238563
-0,103001
-0,166969
-0,24331
-0,198299
-0,14561
-0,271408
-0,231958
-0,149086
-0,156106
-0,200859
-0,149792
-0,22912
-0,188955
-0,193021
-0,285971
-0,163002
-0,218545
-0,158679
-0,174677
-0,109531
-0,204451
-0,135984
-0,152263
-0,247824
-0,258144
-0,220018
-0,185635
-0,290822
-0,198449
-0,148167
-0,157404
-0,162697
-0,261374
-0,218327
-0,225897
-0,219142
-0,103574
-0,12193
-0,186658
-0,197407
-0,167056
-0,153106
-0,194043
-0,168087
-0,2057
-0,17486
-0,198564
-0,220096
-0,17308
-0,086876
-0,177193
-0,198109
-0,165838
-0,15813
-0,200019
-0,224738
-0,172014
-0,159119
-0,147772
-0,293129
-0,2668
-0,122922
-0,160962
-0,229163
-0,217992
-0,156962
-0,195624
-0,154861
-0,197941
-0,262358
-0,105335
-0,186062
-0,223302
-0,176223
-0,126407
-0,197298
-0,172207
-0,15308
-0,250846
-0,113779
-0,136264
-0,24761
-0,073012
-0,219172
-0,257438
-0,225504
-0,17552
-0,136354
-0,251717
-0,11528
-0,21186
-0,164787
-0,245754
-0,167782
-0,158997
-0,267257
-0,149816
-0,101846
-0,245411
-0,18089
-0,163442
-0,131781
-0,189613
-0,056733
-0,176144
-0,099952
-0,09106
-0,192107
-0,166418
-0,18785
-0,151483
-0,069693
-0,193017
-0,169489
-0,09788
-0,149532
-0,19291
-0,262731
-0,166052
-0,254135
-0,182382
-0,188038
-0,158658
-0,241888
-0,063464
-0,13736
-0,231184
-0,113392
-0,154276
-0,193052
-0,090234
-0,017127
-0,170401
-0,00624
-0,079559
-0,235843
-0,163301
-0,098308
-0,149923
-0,088845
-0,123371
-0,102354
-0,085095
-0,114445
-0,120074
-0,080322
-0,12458
-0,023999
-0,004634
-0,161508
-0,067918
-0,165008
-0,090493
-0,065165
-0,149074
-0,090006
-0,005662
-0,112046
-0,101222
-0,102439
-0,21873
-0,037246
0,009304
-0,080336
-0,136594
-0,055489
-0,132012
-0,120074
-0,089059
-0,082609
-0,085313
-0,081332
-0,089155
-0,101532
-0,096118
-0,097363
0,016453
-0,038577
-0,04453
-0,06284
-0,105041
-0,097172
-0,041559
-0,144493
-0,139965
-0,130813
-0,137058
-0,120483
-0,145308
-0,045876
-0,136954
-0,046405
-0,065399
-0,056898
-0,154761
-0,119431
-0,111635
-0,068466
-0,084947
-0,071574
-0,107473
-0,142214
-0,017482
-0,121193
-0,052862
-0,063856
-0,051963
-0,111565
-0,097414
-0,079897
-0,115239
-0,066687
-0,095074
-0,148792
-0,039775
-0,15053
-0,122624
-0,102345
-0,162123
-0,21436
-0,105982
-0,159597
-0,10761
-0,125535
-0,229158
-0,172544
-0,112829
-0,136352
-0,154283
-0,106601
-0,162202
-0,125481
-0,192823
-0,162634
-0,128975
-0,172282
-0,19678
-0,121818
-0,048575
-0,172577
-0,172434
-0,199609
-0,100993
-0,077258
-0,132995
-0,16243
-0,147321
-0,146094
-0,187562
-0,179827
-0,150259
-0,078494
-0,17901
-0,137901
-0,220609
-0,087888
-0,152315
-0,24723
-0,087203
-0,101518
-0,143202
-0,170595
-0,136837
-0,112052
-0,141717
-0,152802
-0,19651
-0,128667
-0,153264
-0,207704
-0,19306
-0,219397
-0,188746
-0,27373
-0,132762
-0,211168
-0,176717
-0,213831
-0,203937
-0,199704
-0,177763
-0,162564
-0,141008
-0,146056
-0,205729
-0,203711
-0,254518
-0,245824
-0,238038
-0,144421
-0,270015
-0,16713
-0,202213
-0,146241
-0,15502
-0,183271
-0,146499
-0,190561
-0,126645
-0,160231
-0,105201
-0,092905
-0,046381
-0,058678
-0,058935
0,030961
0,101194
0,086498
0,041545
0,307891
0,198854
0,231323
0,330853
0,398482
0,493711
0,508399
0,598308
0,614248
0,817872
0,858334
0,924179
1,013997
1,002875
1,050014
1,12695
1,192634
1,204339
1,258965
1,187527
1,176545
1,113266
1,11132
1,036104
0,948511
0,8429
0,847506
0,888674
0,681917
0,659546
0,540439
0,47316
0,443181
0,38169
0,226018
0,171199
0,176136
0,076389
0,103607
-0,02221
-0,055796
-0,167823
-0,118419
-0,151302
-0,200828
-0,261537
-0,311002
-0,20061
-0,276808
-0,325111
-0,226171
-0,271477
-0,299036
-0,187259
-0,277788
-0,336062
-0,261676
-0,228323
-0,213634
-0,211911
-0,110664
-0,163406
-0,22251
-0,111056
-0,152484
-0,254509
-0,210587
-0,14271
-0,203913
-0,134643
-0,239452
-0,16797
-0,134327
-0,1259
-0,168068
-0,16651
-0,216729
-0,221315
-0,132882
-0,147203
-0,18153
-0,089627
-0,24622
-0,261335
-0,187832
-0,239921
-0,156204
-0,197166
-0,089467
-0,25639
-0,236902
-0,182913
-0,10554
-0,125758
-0,107787
-0,167953
-0,128376
-0,202444
-0,124751
-0,164865
-0,202299
-0,173942
-0,102247
-0,134799
-0,236001
-0,253169
-0,245585
-0,136103
-0,215058
-0,172969
-0,167583
-0,236022
-0,093844
-0,09245
-0,129072
-0,23201
-0,204834
-0,184747
-0,149843
-0,219021
-0,210255
-0,199726
-0,214224
-0,258182
-0,141649
-0,115177
-0,267255
-0,199386
-0,154225
-0,198333
-0,165876
-0,081235
-0,127446
-0,192595
-0,171788
-0,204729
-0,173613
-0,108761
-0,120047
-0,149704
-0,141031
-0,20082
-0,163785
-0,151653
-0,26708
-0,251045
-0,136484
-0,237781
-0,118549
-0,110762
-0,203748
-0,154477
-0,130896
-0,161944
-0,136725
-0,163131
-0,167165
-0,134748
-0,084229
-0,13347
-0,026929
-0,246755
-0,150881
-0,166386
-0,010395
-0,154889
-0,191761
-0,213334
-0,226821
-0,185687
-0,209617
-0,094018
-0,172052
-0,190385
-0,19232
-0,126059
-0,180122
-0,145013
-0,162737
-0,09906
-0,150114
-0,116269
-0,130558
-0,146287
-0,114297
-0,11342
-0,043749
-0,149976
-0,136489
-0,150399
-0,145641
-0,124806
-0,057493
-0,088384
-0,060657
-0,097735
-0,154723
-0,133928
-0,090292
-0,05257
-0,130378
-0,039793
-0,113584
-0,177857
-0,070475
-0,166715
-0,074566
-0,15066
-0,123617
-0,132464
-0,049295
-0,119963
-0,009619
-0,015288
-0,116494
-0,009757
-0,048997
-0,061035
0,070184
0,004682
-0,032444
-0,068201
-0,093929
-0,064635
-0,136737
0,016894
0,031374
-0,01426
-0,100289
-0,085272
-0,081275
-0,13879
-0,020139
-0,077376
-0,019422
0,025102
-0,028943
0,060426
0,012538
0,012526
0,020118
-0,037417
0,013032
-0,002298
-0,099163
-0,079817
-0,002128
-0,002696
0,004157
0,022199
0,030762
-0,031461
-0,029554
0,027133
0,079007
0,023828
0,079447
0,019867
-0,005118
0,038573
0,089396
0,027604
0,108548
0,019628
0,067351
0,079324
0,074017
0,019634
0,080397
0,088447
-0,016775
0,018995
0,06417
0,138549
0,120011
0,078162
-0,014556
0,060071
0,066341
0,101522
0,082799
0,095448
0,034816
0,122212
0,030343
0,168321
0,050016
0,08512
0,124466
0,131911
0,213709
0,085069
0,032861
0,050907
0,030639
0,130869
-0,011956
-0,038918
0,040956
0,056473
0,055004
0,167107
0,085764
0,110493
0,044736
0,035446
0,155474
0,023333
0,008057
0,171957
0,10138
0,044254
0,060474
0,106791
0,10748
0,052423
0,084053
0,11278
0,218446
0,060341
-0,006619
0,083291
0,077023
0,145771
0,000708
0,055873
0,058673
-0,020874
-0,018368
0,014246
0,027582
0,026735
0,084416
0,094631
-0,094591
-0,022465
0,131689
0,018171
-0,040605
-0,028294
0,051731
0,085081
-0,049711
0,055858
0,0501
0,023402
0,02124
-0,061025
-0,022505
0,012365
0,034008
-0,023648
0,010594
-0,01653
-0,082935
0,010586
-0,086923
-0,004881
0,018697
-0,043123
-0,101322
-0,018364
-0,037837
-0,080998
-0,066489
-0,004859
0,010826
-0,009817
-0,072874
-0,051909
-0,083062
0,001898
-0,067085
-0,060944
-0,126084
-0,122931
-0,184443
-0,096397
-0,087979
-0,116814
-0,092888
-0,110149
-0,059605
-0,116331
-0,115218
-0,178303
-0,154133
-0,09432
-0,007709
-0,101313
-0,086403
-0,111227
-0,076065
-0,104232
-0,086844
-0,08704
-0,079119
-0,217947
-0,114071
-0,115458
-0,065472
-0,105172
-0,173113
-0,096865
-0,190633
-0,08309
-0,126423
-0,064352
-0,114558
-0,046421
-0,114472
-0,043711
-0,148833
-0,148349
-0,165873
-0,121382
-0,181834
-0,116063
-0,157041
-0,206921
-0,196781
-0,077217
-0,071476
-0,06062
-0,16326
-0,250316
0,011804
-0,121161
-0,093247
-0,178032
-0,088508
-0,099183
-0,15276
-0,309405
-0,176312
-0,127573
-0,255965
-0,140134
-0,159767
-0,190751
-0,222604
-0,170502
-0,145327
-0,138493
-0,223111
-0,161065
-0,149777
-0,126898
-0,206539
-0,118152
-0,243568
-0,099238
-0,234658
-0,225616
-0,155464
-0,168786
-0,225446
-0,168395
-0,194076
-0,131271
-0,181958
-0,14512
-0,250533
-0,189883
-0,220725
-0,177178
-0,151168
-0,160384
-0,184533
-0,196686
-0,271139
-0,160908
-0,118113
-0,191422
-0,172985
-0,15138
-0,194539
-0,106782
-0,133681
-0,160821
-0,231253
-0,128071
-0,2096
-0,211396
-0,181839
-0,187666
-0,100171
-0,202147
-0,167671
-0,208592
-0,152148
-0,175928
-0,165112
-0,242859
-0,13449
-0,14264
-0,180512
-0,196241
-0,15419
-0,132783
-0,206937
-0,179936
-0,110135
-0,120265
-0,070934
-0,194006
-0,119114
-0,215615
-0,159243
-0,227477
-0,186539
-0,23601
-0,127601
-0,137807
-0,216524
-0,227567
-0,093887
-0,173683
-0,265573
-0,222077
-0,09734
-0,243577
-0,195222
-0,125141
-0,1314
-0,127412
-0,213112
-0,165512
-0,162749
-0,15886
-0,145398
-0,083642
-0,265504
-0,173834
-0,194517
-0,217118
-0,169791
-0,176896
-0,180558
-0,216515
-0,080199
-0,201953
-0,158623
-0,219356
-0,288751
-0,107144
-0,14827
-0,146702
-0,121526
-0,205278
-0,17778
-0,166557
-0,194347
-0,240964
-0,162068
-0,155579
-0,143585
-0,151824
-0,189685
-0,262264
-0,135115
-0,182578
-0,136369
-0,197066
-0,078045
-0,182407
-0,11913
-0,101394
-0,126628
-0,185459
-0,130231
-0,15347
-0,195035
-0,162179
-0,207959
-0,175424
-0,209375
-0,075433
-0,177579
-0,185461
-0,128645
-0,077072
-0,235064
-0,132688
-0,225978
-0,14381
-0,217407
-0,159637
-0,1373
-0,131334
-0,109168
-0,213363
-0,114996
-0,151356
-0,069775
-0,101513
-0,186081
-0,144105
-0,21985
-0,190543
-0,19881
-0,195299
-0,272129
-0,168933
-0,223331
-0,158962
-0,130413
-0,162175
-0,215942
-0,247301
-0,210444
-0,199475
-0,166337
-0,172256
-0,152497
-0,154897
-0,202374
-0,098429
-0,116328
-0,19665
-0,185835
-0,149109
-0,143744
-0,130058
-0,106043
-0,283193
-0,287123
-0,12762
-0,094207
-0,137435
-0,154389
-0,160933
-0,163113
-0,305417
-0,183877
-0,194649
-0,061971
-0,205257
-0,147842
-0,15067
-0,221142
-0,163114
-0,158364
-0,221658
-0,138872
-0,118437
-0,062229
-0,170353
-0,19469
-0,161383
-0,076957
-0,138709
-0,16335
-0,196031
-0,244943
-0,175728
-0,205351
-0,218532
-0,166023
-0,128675
-0,205863
-0,167491
-0,191755
-0,075107
-0,12239
-0,135031
-0,116525
-0,220454
-0,178815
-0,143601
-0,177441
-0,176482
-0,096742
-0,194356
-0,169723
-0,176581
-0,165665
-0,196913
-0,195401
-0,198416
-0,099268
-0,152235
-0,148609
-0,274051
-0,19932
-0,199026
-0,217776
-0,198868
-0,148171
-0,132219
-0,243267
-0,14636
-0,14401
-0,113871
-0,14999
-0,172859
-0,226013
-0,251232
-0,081281
-0,131942
-0,164674
-0,15378
-0,184412
-0,207141
-0,097936
-0,185968
-0,201942
-0,086136
-0,244514
-0,131177
-0,207842
-0,136065
-0,174244
-0,172524
-0,106558
-0,129396
-0,136117
-0,210922
-0,100384
-0,117527
-0,189065
-0,11525
-0,142002
-0,233969
-0,157992
-0,166795
-0,189856
-0,182174
-0,215316
-0,156227
-0,164365
-0,170174
-0,187151
-0,299066
-0,126302
-0,169245
-0,110373
-0,107633
-0,138575
-0,203107
-0,170611
-0,137487
-0,161358
-0,108521
-0,186566
-0,17588
-0,177041
-0,17962
-0,133918
-0,248817
-0,103438
-0,123192
-0,179005
-0,213085
-0,108421
-0,046414
-0,189675
-0,179616
-0,185429
-0,143736
-0,085905
-0,21593
-0,100013
-0,158917
-0,145673
-0,168377
-0,248591
-0,206673
-0,173754
-0,104171
-0,202417
-0,18602
-0,151175
-0,209792
-0,141766
-0,175194
-0,169918
-0,154362
-0,161993
-0,204794
-0,14883
-0,273695
-0,123326
-0,119195
-0,168359
-0,184139
-0,255769
-0,156336
-0,187271
-0,087172
-0,211318
-0,113051
-0,141396
-0,217464
-0,164676
-0,171156
-0,161147
-0,203873
-0,15387
-0,198348
-0,143357
-0,192476
-0,192206
-0,138436
-0,174041
-0,170941
-0,126186
-0,017791
-0,101102
-0,218045
-0,177195
-0,189572
-0,115772
-0,118729
-0,139388
-0,178919
-0,073822
-0,182945
-0,14208
-0,175273
-0,108394
-0,137702
-0,162579
-0,053015
-0,125302
-0,085755
-0,189563
-0,114772
-0,180124
-0,133453
-0,139667
-0,153824
-0,065632
-0,06179
-0,029819
-0,18688
-0,128293
-0,128863
-0,130291
-0,094652
-0,116353
-0,105249
-0,131575
-0,121206
-0,064296
-0,150033
-0,013207
-0,13812
-0,149902
-0,114981
-0,100878
-0,168253
-0,165684
-0,172878
0,020189
-0,098548
0,002989
-0,064087
-0,089023
-0,121316
-0,086866
0,035219
-0,11178
-0,10439
-0,13306
-0,035792
-0,0756
-0,05589
-0,071483
-0,078751
-0,048459
-0,077201
0,000471
-0,133379
-0,004908
-0,070517
-0,085244
-0,135005
-0,063571
-0,146322
-0,121249
-0,003239
-0,00863
-0,111377
-0,192166
-0,129543
-0,05077
-0,09803
-0,093956
-0,062547
-0,105006
-0,109195
-0,075303
-0,08671
-0,067375
-0,061118
-0,078936
-0,106646
-0,106326
-0,087652
-0,210672
-0,137165
-0,101867
-0,20798
-0,147277
-0,110273
-0,061263
-0,079697
-0,132966
-0,127348
-0,102043
-0,159905
-0,189186
-0,1174
-0,096588
-0,164659
-0,18323
-0,086573
-0,243277
-0,145091
-0,148285
-0,120549
-0,15213
-0,224915
-0,136875
-0,074966
-0,152782
-0,207027
-0,159205
-0,130168
-0,188291
-0,080122
-0,135235
-0,221599
-0,127301
-0,147897
-0,129068
-0,175434
-0,210538
-0,160332
-0,167739
-0,147168
-0,115549
-0,185143
-0,189423
-0,243282
-0,177061
-0,213922
-0,047232
-0,208505
-0,14246
-0,142047
-0,174517
-0,178964
-0,136874
-0,177719
-0,185218
-0,154582
-0,263628
-0,201205
-0,190745
-0,258177
-0,140203
-0,097472
-0,244205
-0,136658
-0,214048
-0,171126
-0,260938
-0,157362
-0,180062
-0,220422
-0,160603
-0,163048
-0,210837
-0,214998
-0,177483
-0,267905
-0,215866
-0,175944
-0,180879
-0,294102
-0,236947
-0,270287
-0,331257
-0,113712
-0,245924
-0,248812
-0,252154
-0,171691
-0,039033
-0,105354
-0,219984
-0,091608
-0,137594
-0,050467
-0,075289
-0,044704
0,00648
0,045936
0,156019
0,171615
0,214799
0,3286
0,387133
0,485855
0,543207
0,616038
0,631186
0,746557
0,785218
0,895436
0,968791
0,928443
1,00691
1,047274
1,087553
1,084566
1,157825
1,124396
1,057929
1,060642
1,015905
1,096752
1,019865
0,84183
0,814723
0,845207
0,72574
0,628177
0,507604
0,488819
0,406812
0,362782
0,283542
0,21437
0,048374
0,135219
0,011739
-0,041248
-0,162009
-0,071813
-0,160822
-0,28608
-0,235029
-0,262319
-0,302445
-0,334613
-0,269585
-0,336558
-0,323709
-0,292962
-0,305636
-0,24638
-0,315826
-0,214112
-0,20184
-0,29577
-0,251654
-0,338001
-0,263828
-0,250483
-0,204442
-0,191243
-0,16542
-0,224811
-0,251061
-0,252581
-0,211229
-0,290999
-0,243471
-0,257791
-0,336372
-0,161882
-0,297849
-0,222847
-0,249935
-0,268668
-0,151698
-0,097403
-0,156605
-0,240296
-0,246464
-0,201383
-0,201184
-0,242888
-0,29884
-0,258748
-0,219503
-0,192893
-0,175988
-0,249576
-0,278315
-0,243769
-0,176368
-0,168311
-0,205122
-0,159898
-0,144662
-0,201277
-0,302185
-0,270523
-0,225573
-0,271854
-0,161604
-0,245295
-0,176127
-0,238891
-0,194852
-0,21663
-0,14711
-0,133283
-0,234368
-0,152842
-0,15445
-0,176085
-0,13583
-0,243025
-0,197778
-0,204829
-0,06875
-0,312678
-0,299642
-0,238192
-0,135095
-0,366508
-0,182414
-0,199399
-0,297577
-0,199333
-0,183543
-0,204099
-0,274769
-0,203839
-0,23348
-0,175173
-0,260055
-0,129824
-0,246137
-0,22515
-0,199642
-0,192068
-0,238185
-0,224814
-0,202105
-0,217374
-0,204871
-0,194041
-0,144962
-0,224993
-0,175049
-0,18801
-0,167388
-0,216384
-0,279539
-0,255439
-0,301062
-0,195142
-0,183819
-0,225039
-0,238766
-0,275573
-0,276013
-0,161409
-0,227899
-0,226513
-0,191159
-0,145197
-0,221515
-0,144213
-0,239519
-0,18398
-0,178502
-0,194591
-0,218003
-0,148585
-0,156431
-0,229378
-0,205987
-0,236955
-0,102616
-0,122926
-0,221542
-0,11333
-0,200136
-0,181917
-0,108928
-0,181512
-0,052994
-0,180179
-0,206618
-0,195958
-0,171227
-0,136393
-0,128506
-0,144089
-0,191921
-0,099427
-0,183377
-0,080683
-0,231858
-0,129973
-0,208874
-0,154778
-0,162325
-0,221495
-0,115597
-0,081848
-0,126725
-0,056169
-0,174866
-0,087308
-0,146651
-0,139751
-0,090987
-0,17762
-0,181173
-0,125904
-0,068417
-0,176801
-0,113202
-0,152208
-0,058047
-0,05117
-0,133408
-0,126876
-0,143898
-0,043202
-0,066014
-0,082341
-0,124532
-0,06427
-0,059487
-0,090136
-0,047495
-0,021305
-0,116266
-0,031393
-0,142133
-0,045576
-0,062429
-0,073821
-0,159898
-0,047478
-0,075657
0,007459
-0,010069
0,029025
0,100246
-0,062384
0,041869
0,010746
-0,112032
-0,163319
-0,032394
-0,057969
-0,028559
-0,111067
0,024933
-0,031004
-0,034961
-0,07938
-0,013221
-0,12048
0,009055
0,009037
-0,040345
0,013222
0,040492
-0,006899
0,086305
0,027954
-0,022138
0,043026
-0,044586
0,057872
-0,025221
-0,007404
-0,015685
0,045122
-0,01638
0,064571
0,097573
0,016131
0,042225
0,026692
-0,026624
0,076008
-0,005183
0,093217
-0,020473
-0,008598
0,017358
0,115712
-0,040333
0,001714
0,075397
0,02279
-0,0081
0,004192
0,014829
0,007505
0,070177
-0,026128
-0,023297
0,037957
0,01514
0,06658
0,046158
-0,035915
-0,003498
0,038176
0,054948
-0,03441
-0,068153
0,040951
-0,047218
0,09988
0,011664
-0,043681
-0,005119
0,00497
0,138318
0,078661
-0,061994
-0,036441
0,000053
-0,077362
-0,042831
0,023146
0,00763
0,003491
-0,079558
0,000948
-0,047823
-0,015506
-0,028531
-0,004643
-0,03661
-0,012553
-0,076525
0,065931
-0,088995
-0,104406
-0,03096
-0,005244
-0,091267
-0,066639
-0,110961
-0,145215
-0,029437
-0,023996
-0,1659
-0,053238
-0,11462
-0,081009
-0,088647
-0,074535
-0,120566
-0,215057
-0,140971
-0,17019
-0,056388
-0,176696
-0,105904
-0,207265
-0,096136
-0,19361
-0,174142
-0,163936
-0,289412
-0,139913
-0,026682
-0,140842
-0,226687
-0,134815
-0,123429
-0,218905
-0,17632
-0,193932
-0,209122
-0,150214
-0,189638
-0,183916
-0,168712
-0,152927
-0,197523
-0,279693
-0,183358
-0,193903
-0,233878
-0,26386
-0,253416
-0,215972
-0,213536
-0,234381
-0,177941
-0,22505
-0,15677
-0,187685
-0,194545
-0,260425
-0,137384
-0,17167
-0,312855
-0,245858
-0,204858
-0,309999
-0,264988
-0,199779
-0,241679
-0,15724
-0,241704
-0,158241
-0,259677
-0,184469
-0,268247
-0,225123
-0,270712
-0,302448
-0,206596
-0,224376
-0,177672
-0,275393
-0,256173
-0,235789
-0,14458
-0,239078
-0,217725
-0,236812
-0,297164
-0,283506
-0,193931
-0,296151
-0,266408
-0,273929
-0,242116
-0,239296
-0,270342
-0,17954
-0,21879
-0,256464
-0,241649
-0,245821
-0,217571
-0,250717
-0,310571
-0,323207
-0,245112
-0,327412
-0,215304
-0,199274
-0,285313
-0,279791
-0,219671
-0,182561
-0,338156
-0,160136
-0,306849
-0,220878
-0,191315
-0,231644
-0,224305
-0,197461
-0,195155
-0,280237
-0,246621
-0,248476
-0,328551
-0,342877
-0,247282
-0,269707
-0,344301
-0,208095
-0,208757
-0,242458
-0,183379
-0,362651
-0,253671
-0,223545
-0,2776
-0,304477
-0,202985
-0,223398
-0,2353
-0,246256
-0,219377
-0,208101
-0,278394
-0,250213
-0,25586
-0,118246
-0,317642
-0,226963
-0,358572
-0,308271
-0,315396
-0,254071
-0,245412
-0,290178
-0,324823
-0,310782
-0,239927
-0,270679
-0,251779
-0,28736
-0,278721
-0,220053
-0,2664
-0,186751
-0,218464
-0,195265
-0,252726
-0,220058
-0,354412
-0,309969
-0,205702
-0,208351
-0,164004
-0,209724
-0,312023
-0,260039
-0,254919
-0,272655
-0,328192
-0,389915
-0,223426
-0,327727
-0,2687
-0,226719
-0,239398
-0,156261
-0,187246
-0,275313
-0,245132
-0,285061
-0,24733
-0,332737
-0,253069
-0,152903
-0,320241
-0,278901
-0,274461
-0,247071
-0,249058
-0,270768
-0,30535
-0,326957
-0,18237
-0,254805
-0,358425
-0,202746
-0,281967
-0,289359
-0,216531
-0,217273
-0,363432
-0,278845
-0,302508
-0,24406
-0,193838
-0,265747
-0,271546
-0,204712
-0,281687
-0,289889
-0,296635
-0,344597
-0,190542
-0,185367
-0,257207
-0,26764
-0,279022
-0,241643
-0,179629
-0,269997
-0,170494
-0,342132
-0,374251
-0,219267
-0,174685
-0,235672
-0,246754
-0,316927
-0,255635
-0,363379
-0,222203
-0,22394
-0,310404
-0,241855
-0,212007
-0,242732
-0,286462
-0,178106
-0,280379
-0,181872
-0,304907
-0,285955
-0,256957
-0,247127
-0,267543
-0,275852
-0,3155
-0,241236
-0,268896
-0,263859
-0,196581
-0,323508
-0,263552
-0,183832
-0,284077
-0,276779
-0,413185
-0,302044
-0,207552
-0,188297
-0,357906
-0,364925
-0,27294
-0,208073
-0,258479
-0,257014
-0,275647
-0,303417
-0,284744
-0,226469
-0,198177
-0,337538
-0,321986
-0,294645
-0,292523
-0,266569
-0,26193
-0,202376
-0,214576
-0,263417
-0,271289
-0,35089
-0,210276
-0,30094
-0,291531
-0,226657
-0,181713
-0,208332
-0,325828
-0,351084
-0,199083
-0,3524
-0,179158
-0,303895
-0,291881
-0,236231
-0,316797
-0,285474
-0,305935
-0,191858
-0,387484
-0,20241
-0,141361
-0,235008
-0,283894
-0,215756
-0,240878
-0,307461
-0,25295
-0,312822
-0,301098
-0,313674
-0,268428
-0,296282
-0,152752
-0,242171
-0,249188
-0,283693
-0,278188
-0,139927
-0,265153
-0,256073
-0,309722
-0,294708
-0,185417
-0,220101
-0,281561
-0,221275
-0,231685
-0,220715
-0,124428
-0,263837
-0,326948
-0,321581
-0,307962
-0,195909
-0,204259
-0,329222
-0,31027
-0,32512
-0,295941
-0,269396
-0,282159
-0,332266
-0,267067
-0,356457
-0,309483
-0,294337
-0,349669
-0,294191
-0,314785
-0,259903
-0,194063
-0,24603
-0,35011
-0,248809
-0,340574
-0,217066
-0,239237
-0,283425
-0,246035
-0,266004
-0,322987
-0,209949
-0,30344
-0,262296
-0,289764
-0,261419
-0,225658
-0,263123
-0,258339
-0,27302
-0,150177
-0,351646
-0,271795
-0,229898
-0,24824
-0,263498
-0,21349
-0,25603
-0,238349
-0,283972
-0,20067
-0,351202
-0,371108
-0,251354
-0,320553
-0,273871
-0,258933
-0,216995
-0,286865
-0,299259
-0,313982
-0,226679
-0,306532
-0,24815
-0,238538
-0,31383
-0,242934
-0,155147
-0,294248
-0,341518
-0,222432
-0,278677
-0,29122
-0,327849
-0,208891
-0,246368
-0,267538
-0,268719
-0,27567
-0,246218
-0,241515
-0,296767
-0,266543
-0,211143
-0,266422
-0,153405
-0,270841
-0,296254
-0,2625
-0,285526
-0,278285
-0,225979
-0,296635
-0,294991
-0,214101
-0,307574
-0,250698
-0,224921
-0,216469
-0,169277
-0,295158
-0,198862
-0,301721
-0,194139
-0,22234
-0,29638
-0,277686
-0,276973
-0,191166
-0,216035
-0,18202
-0,308954
-0,33713
-0,267061
-0,293903
-0,341044
-0,222732
-0,212406
-0,200955
-0,304891
-0,242942
-0,303904
-0,231527
-0,279172
-0,343246
-0,177614
-0,277245
-0,211214
-0,135115
-0,205719
-0,180677
-0,19601
-0,176984
-0,267996
-0,224093
-0,205848
-0,096484
-0,247211
-0,237966
-0,182931
-0,263276
-0,210691
-0,242824
-0,166802
-0,293
-0,203787
-0,225916
-0,155653
-0,24725
-0,209592
-0,249211
-0,238768
-0,287323
-0,122192
-0,250165
-0,188114
-0,195322
-0,2544
-0,184277
-0,20348
-0,128975
-0,233524
-0,177852
-0,142304
-0,178363
-0,062764
-0,210977
-0,161943
-0,2091
-0,166545
-0,236012
-0,119078
-0,250264
-0,213752
-0,200793
-0,06474
-0,190619
-0,263946
-0,228696
-0,128564
-0,174706
-0,135957
-0,233643
-0,2283
-0,191113
-0,181919
-0,152015
-0,224876
-0,200944
-0,223762
-0,142162
-0,198332
-0,286101
-0,233698
-0,214316
-0,204813
-0,173824
-0,323754
-0,221644
-0,223097
-0,173075
-0,140293
-0,160677
-0,236221
-0,328704
-0,191102
-0,250458
-0,239847
-0,132832
-0,23406
-0,200847
-0,187699
-0,328053
-0,212671
-0,215967
-0,231793
-0,193262
-0,365918
-0,320811
-0,330576
-0,254718
-0,289767
-0,249891
-0,271037
-0,230096
-0,278182
-0,218744
-0,201053
-0,286431
-0,357531
-0,268997
-0,34701
-0,272684
-0,244824
-0,23622
-0,242418
-0,252749
-0,257346
-0,35073
-0,395612
-0,319517
-0,344103
-0,308078
-0,35807
-0,223466
-0,223772
-0,284102
-0,269438
-0,267122
-0,277887
-0,330617
-0,287363
-0,299155
-0,300039
-0,267041
-0,359889
-0,309471
-0,274666
-0,360858
-0,2841
-0,306744
-0,19542
-0,366135
-0,242844
-0,331596
-0,338588
-0,304628
-0,338266
-0,254428
-0,320808
-0,312761
-0,271327
-0,370303
-0,312783
-0,24847
-0,329688
-0,238791
-0,316037
-0,304613
-0,275453
-0,295916
-0,412012
-0,281394
-0,325957
-0,263795
-0,240285
-0,345979
-0,33279
-0,336141
-0,278034
-0,289835
-0,281745
-0,287623
-0,318372
-0,216563
-0,402698
-0,230734
-0,338966
-0,294115
-0,244477
-0,29902
-0,219765
-0,235201
-0,319369
-0,102988
-0,186681
-0,087843
-0,016979
-0,056497
-0,027935
0,062935
0,187006
0,256283
0,274057
0,406921
0,471384
0,466218
0,571257
0,672199
0,702174
0,662555
0,771842
0,87238
0,901988
0,970808
1,062546
0,970973
1,041749
1,023129
0,998079
1,039253
0,928534
0,9116
0,870696
0,871183
0,719221
0,674824
0,609626
0,527243
0,411217
0,41092
0,280536
0,252712
0,166437
0,054
-0,000654
-0,091759
0,057204
-0,142695
-0,206981
-0,308109
-0,265392
-0,287443
-0,365125
-0,34806
-0,244584
-0,304581
-0,361671
-0,361644
-0,391127
-0,396524
-0,362968
-0,392004
-0,347311
-0,348812
-0,294696
-0,357961
-0,295334
-0,428851
-0,390865
-0,367514
-0,394845
-0,245785
-0,36512
-0,351374
-0,323884
-0,384811
-0,324985
-0,340592
-0,407614
-0,286727
-0,323816
-0,358881
-0,258234
-0,25697
-0,319477
-0,27002
-0,307703
-0,415632
-0,296732
-0,349887
-0,184767
-0,257277
-0,28631
-0,330673
-0,291416
-0,284042
-0,217671
-0,369933
-0,304657
-0,344634
-0,425783
-0,31981
-0,280407
-0,385253
-0,446734
-0,269599
-0,24932
-0,330848
-0,374675
-0,36534
-0,274013
-0,400075
-0,333057
-0,392238
-0,268413
-0,267801
-0,396281
-0,36943
-0,33716
-0,287318
-0,347417
-0,275819
-0,358911
-0,414977
-0,31626
-0,286947
-0,295768
-0,301515
-0,320528
-0,314625
-0,383183
-0,292639
-0,316129
-0,28287
-0,372557
-0,289193
-0,340828
-0,350169
-0,397633
-0,365888
-0,245854
-0,27025
-0,304108
-0,293148
-0,321733
-0,187974
-0,362343
-0,332738
-0,226168
-0,246117
-0,358985
-0,44485
-0,310391
-0,376277
-0,407955
-0,289065
-0,293447
-0,322496
-0,378931
-0,322843
-0,248239
-0,347901
-0,392002
-0,255029
-0,340662
-0,283461
-0,384625
-0,200808
-0,310533
-0,365922
-0,254875
-0,316789
-0,306641
-0,32685
-0,291137
-0,28631
-0,370881
-0,213577
-0,277117
-0,233145
-0,38669
-0,27041
-0,332618
-0,188203
-0,251993
-0,293028
-0,220462
-0,235759
-0,276344
-0,30213
-0,381646
-0,338238
-0,277297
-0,240528
-0,263661
-0,152575
-0,305618
-0,219827
-0,222424
-0,273739
-0,211817
-0,283325
-0,266588
-0,225118
-0,286312
-0,22267
-0,192469
-0,32112
-0,273838
-0,280175
-0,20617
-0,212625
-0,293429
-0,2201
-0,251633
-0,187688
-0,185031
-0,130964
-0,358862
-0,182627
-0,171302
-0,220383
-0,171156
-0,187808
-0,260574
-0,269033
-0,215038
-0,191032
-0,236388
-0,223083
-0,186341
-0,20154
-0,152852
-0,191133
-0,265038
-0,214117
-0,18698
-0,233673
-0,219462
-0,179355
-0,192881
-0,230055
-0,195762
-0,222585
-0,279769
-0,117853
-0,172599
-0,154677
-0,237678
-0,18095
-0,148037
-0,108513
-0,150665
-0,084827
-0,260705
-0,121525
-0,120307
-0,081523
-0,165078
-0,102426
-0,202153
-0,159333
-0,12084
-0,140785
-0,103317
-0,082273
-0,119688
-0,075977
-0,177844
-0,074075
-0,118147
-0,197877
-0,129677
-0,090365
-0,0553
-0,016374
-0,123083
0,014742
-0,125093
-0,06109
-0,103533
-0,088701
-0,091399
-0,108027
-0,062674
-0,132328
-0,116422
-0,006836
-0,056975
-0,04561
-0,108575
-0,113731
-0,047957
-0,107031
-0,000132
-0,055171
-0,048058
-0,03495
-0,057453
-0,041942
-0,025656
-0,022358
-0,109038
-0,052192
-0,038235
-0,053413
-0,101494
-0,070024
-0,072179
-0,032377
-0,043304
-0,027879
-0,037802
-0,03992
-0,081973
-0,126545
-0,070724
-0,039457
-0,033987
0,004055
-0,155012
-0,068779
-0,144284
-0,083047
-0,067644
-0,095211
-0,059685
-0,077463
-0,127175
-0,193681
-0,052282
-0,003718
-0,17842
-0,084661
-0,043516
-0,130839
-0,043998
-0,158271
-0,058321
-0,157909
-0,099396
-0,10005
-0,24907
-0,137991
-0,024853
-0,10448
-0,183214
-0,071002
-0,100673
-0,170981
-0,223719
-0,124032
-0,128007
-0,133838
-0,174882
-0,141124
-0,166006
-0,21278
-0,183344
-0,251056
-0,269187
-0,206213
-0,143818
-0,131798
-0,218942
-0,221671
-0,189428
-0,199677
-0,233423
-0,23166
-0,251615
-0,233334
-0,161895
-0,175497
-0,290968
-0,245311
-0,160536
-0,160319
-0,18371
-0,225814
-0,282581
-0,297927
-0,272719
-0,289139
-0,276659
-0,197222
-0,22861
-0,243308
-0,193069
-0,315725
-0,320391
-0,227855
-0,282947
-0,220852
-0,298659
-0,205978
-0,151811
-0,217402
-0,283365
-0,270325
-0,260052
-0,341831
-0,322794
-0,355647
-0,280717
-0,350671
-0,372525
-0,306405
-0,335847
-0,268355
-0,281723
-0,140455
-0,279124
-0,330322
-0,253098
-0,332054
-0,290417
-0,249961
-0,298765
-0,357363
-0,291049
-0,28693
-0,230241
-0,275489
-0,344007
-0,354636
-0,337027
-0,335086
-0,364595
-0,365782
-0,315258
-0,315949
-0,251942
-0,25898
-0,405739
-0,305735
-0,286982
-0,460232
-0,33834
-0,211221
-0,298758
-0,246434
-0,272401
-0,26358
-0,353299
-0,36357
-0,360685
-0,323489
-0,244841
-0,306745
-0,360902
-0,371369
-0,274478
-0,332515
-0,288899
-0,395208
-0,335584
-0,358278
-0,336506
-0,354573
-0,377717
-0,262091
-0,298661
-0,339273
-0,281424
-0,302648
-0,399084
-0,241281
-0,349319
-0,337033
-0,285442
-0,363797
-0,348531
-0,447944
-0,373096
-0,299306
-0,411039
-0,377662
-0,316751
-0,291394
-0,323883
-0,432341
-0,259928
-0,360356
-0,270223
-0,333397
-0,25499
-0,28751
-0,323537
-0,348669
-0,353605
-0,313387
-0,390794
-0,375461
-0,295236
-0,320403
-0,222756
-0,391497
-0,273767
-0,249498
-0,297642
-0,323705
-0,331984
-0,296857
-0,307385
-0,271378
-0,30304
-0,356337
-0,265714
-0,371078
-0,459756
-0,288217
-0,390845
-0,295001
-0,334246
-0,367049
-0,308036
-0,348651
-0,366806
-0,273198
-0,389009
-0,33348
-0,353936
-0,413967
-0,336205
-0,282277
-0,385529
-0,260436
-0,361561
-0,343996
-0,363788
-0,273841
-0,304247
-0,378086
-0,336513
-0,325951
-0,316102
-0,279353
-0,279496
-0,328347
-0,329014
-0,304128
-0,378649
-0,300166
-0,299843
-0,259206
-0,336537
-0,369576
-0,334392
-0,278958
-0,30396
-0,37452
-0,332525
-0,373235
-0,239446
-0,29835
-0,334322
-0,377123
-0,309579
-0,433013
-0,341436
-0,349757
-0,376857
-0,305269
-0,25351
-0,317366
-0,327863
-0,28277
-0,390275
-0,390988
-0,356556
-0,288678
-0,311358
-0,346202
-0,40868
-0,335095
-0,273199
-0,275518
-0,243321
-0,286929
-0,319853
-0,321885
-0,393064
-0,321465
-0,281353
-0,269282
-0,345167
-0,276898
-0,3941
-0,312506
-0,356357
-0,401614
-0,34532
-0,402803
-0,419745
-0,393211
-0,352852
-0,273958
-0,256419
-0,30566
-0,268062
-0,25558
-0,295262
-0,280812
-0,353
-0,272187
-0,284532
-0,211148
-0,29455
-0,357127
-0,350474
-0,333014
-0,319771
-0,330079
-0,283252
-0,253753
-0,374804
-0,303657
-0,330195
-0,352201
-0,274926
-0,315137
-0,273095
-0,230914
-0,368928
-0,319493
-0,336053
-0,310321
-0,288689
-0,284741
-0,34512
-0,366481
-0,253914
-0,287919
-0,256257
-0,33776
-0,421455
-0,320469
-0,349122
-0,345764
-0,331177
-0,26109
-0,347365
-0,339981
-0,374313
-0,284305
-0,324704
-0,197215
-0,313939
-0,279724
-0,33986
-0,325411
-0,228981
-0,429373
-0,233763
-0,325922
-0,20013
-0,303554
-0,293799
-0,246369
-0,282927
-0,299402
-0,393963
-0,306751
-0,377808
-0,319452
-0,319381
-0,334819
-0,326592
-0,447259
-0,364418
-0,319381
-0,34952
-0,339822
-0,220478
-0,282338
-0,222609
-0,351744
-0,200937
-0,326606
-0,288403
-0,320558
-0,318077
-0,208041
-0,27056
-0,272814
-0,360176
-0,260629
-0,387709
-0,352551
-0,41559
-0,308422
-0,298046
-0,283631
-0,287676
-0,301739
-0,338811
-0,320098
-0,307091
-0,34584
-0,387285
-0,358398
-0,211461
-0,333276
-0,285057
-0,399515
-0,364352
-0,257836
-0,351019
-0,341478
-0,368867
-0,305978
-0,275781
-0,336643
-0,311941
-0,339026
-0,352945
-0,416042
-0,259556
-0,330217
-0,252132
-0,330152
-0,332501
-0,28725
-0,309519
-0,233501
-0,258602
-0,352417
-0,352974
-0,292417
-0,281544
-0,211494
-0,270257
-0,198245
-0,370454
-0,360166
-0,356359
-0,291221
-0,36798
-0,35126
-0,288865
-0,350898
-0,244793
-0,243802
-0,296856
-0,291786
-0,256456
-0,294538
-0,329205
-0,309071
-0,323043
-0,333668
-0,266727
-0,340443
-0,303848
-0,389347
-0,355406
-0,346441
-0,342734
-0,316667
-0,313021
-0,330183
-0,277774
-0,269739
-0,258346
-0,345591
-0,313206
-0,329545
-0,269792
-0,290442
-0,29322
-0,285221
-0,213387
-0,327638
-0,2907
-0,304547
-0,360014
-0,259367
-0,319594
-0,432944
-0,321833
-0,403172
-0,243803
-0,329888
-0,347971
-0,261248
-0,240333
-0,250351
-0,304052
-0,221917
-0,272761
-0,242537
-0,216752
-0,331125
-0,288692
-0,31289
-0,26493
-0,264742
-0,344414
-0,325547
-0,224647
-0,283002
-0,282133
-0,296751
-0,230217
-0,300953
-0,365745
-0,247433
-0,261297
-0,392111
-0,330908
-0,306805
-0,244365
-0,242127
-0,2543
-0,212276
-0,234518
-0,29215
-0,192378
-0,246144
-0,297795
-0,260713
-0,226966
-0,323811
-0,298648
-0,368783
-0,20673
-0,300784
-0,270219
-0,267083
-0,293954
-0,332854
-0,302736
-0,195042
-0,206886
-0,240627
-0,254641
-0,318843
-0,330662
-0,290294
-0,194007
-0,207289
-0,235137
-0,243995
-0,224348
-0,256751
-0,249077
-0,188351
-0,201622
-0,296513
-0,284437
-0,16057
-0,290665
-0,206414
-0,17119
-0,182197
-0,150742
-0,092024
-0,167705
-0,14155
-0,197678
-0,30656
-0,14615
-0,128396
-0,194529
-0,265939
-0,160109
-0,127119
-0,242034
-0,194439
-0,231304
-0,160531
-0,183993
-0,122614
-0,117152
-0,16713
-0,241073
-0,147277
-0,104172
-0,166323
-0,246799
-0,159667
-0,242753
-0,184753
-0,250139
-0,251023
-0,160398
-0,135025
-0,174416
-0,08797
-0,177817
-0,258056
-0,26507
-0,29457
-0,245611
-0,196848
-0,287061
-0,249332
-0,249793
-0,186729
-0,180163
-0,199796
-0,217269
-0,287932
-0,311685
-0,190328
-0,215136
-0,252767
-0,319584
-0,201738
-0,179411
-0,298325
-0,214763
-0,281625
-0,195047
-0,346936
-0,338616
-0,264642
-0,209183
-0,287692
-0,200396
-0,167915
-0,290496
-0,254699
-0,220038
-0,291809
-0,367934
-0,275227
-0,147788
-0,218576
-0,302867
-0,274453
-0,249647
-0,242446
-0,167483
-0,208657
-0,303393
-0,170011
-0,272826
-0,215669
-0,309762
-0,33188
-0,255663
-0,356249
-0,283852
-0,265211
-0,383163
-0,228406
-0,229001
-0,269462
-0,249312
-0,311956
-0,289022
-0,339711
-0,216185
-0,240749
-0,301937
-0,295456
-0,243219
-0,291717
-0,186301
-0,237773
-0,227716
-0,246564
-0,252498
-0,2873
-0,151173
-0,25647
-0,24561
-0,170034
-0,273386
-0,221338
-0,288224
-0,18433
-0,15897
-0,357303
-0,252797
-0,269145
-0,273838
-0,271812
-0,37805
-0,292485
-0,281048
-0,315095
-0,330112
-0,311265
-0,281005
-0,289511
-0,290548
-0,277404
-0,269059
-0,263519
-0,341959
-0,442587
-0,320952
-0,383663
-0,262755
-0,285417
-0,343027
-0,259649
-0,282701
-0,263989
-0,2477
-0,270059
-0,307965
-0,216115
-0,200677
-0,177434
-0,208568
-0,140589
-0,08295
-0,060343
-0,053728
-0,027618
0,11326
0,168415
0,268817
0,233667
0,312348
0,460082
0,549876
0,588215
0,669825
0,783109
0,796995
0,935933
0,868963
0,93061
0,906165
1,034034
1,026639
1,172518
1,094234
0,996946
1,043674
0,997975
0,986761
0,957799
0,768055
0,759204
0,624364
0,651645
0,636839
0,505683
0,387944
0,293907
0,227404
0,26738
0,106773
0,078403
0,026617
0,034343
-0,04268
-0,124171
-0,206656
-0,153448
-0,132846
-0,318876
-0,233181
-0,298807
-0,252975
-0,346585
-0,38249
-0,397011
-0,445714
-0,26552
-0,470444
-0,32516
-0,355983
-0,36581
-0,383324
-0,388096
-0,305277
-0,257107
-0,249175
-0,265962
-0,400022
-0,272844
-0,335852
-0,336552
-0,27943
-0,22713
-0,290452
-0,307918
-0,370804
-0,266753
-0,256342
-0,360589
-0,241522
-0,208875
-0,204673
-0,268147
-0,367942
-0,238799
-0,244596
-0,279189
-0,29164
-0,290565
-0,330966
-0,259581
-0,261361
-0,356073
-0,348351
-0,350695
-0,345628
-0,331153
-0,255201
-0,244717
-0,255933
-0,286114
-0,284018
-0,235361
-0,315094
-0,225728
-0,324165
-0,341979
-0,354238
-0,25957
-0,319446
-0,329959
-0,243235
-0,279154
-0,297331
-0,273195
-0,288305
-0,246204
-0,257942
-0,347413
-0,318159
-0,27116
-0,299128
-0,216926
-0,225213
-0,282149
-0,327139
-0,253002
-0,290352
-0,223097
-0,287466
-0,227249
-0,289454
-0,320205
-0,273266
-0,300266
-0,268469
-0,326951
-0,340364
-0,324043
-0,28987
-0,224243
-0,326176
-0,205077
-0,302453
-0,377444
-0,306831
-0,293883
-0,29602
-0,339845
-0,261379
-0,305707
-0,2374
-0,233737
-0,26598
-0,245979
-0,300342
-0,246536
-0,275108
-0,246366
-0,151355
-0,229451
-0,281257
-0,274028
-0,276204
-0,300885
-0,24519
-0,26157
-0,242369
-0,212213
-0,141085
-0,18408
-0,224768
-0,215032
-0,29357
-0,241684
-0,171634
-0,265423
-0,170784
-0,291545
-0,247163
-0,296208
-0,162203
-0,203225
-0,281712
-0,219081
-0,172643
-0,226291
-0,143155
-0,250827
-0,311879
-0,252633
-0,197387
-0,229339
-0,226728
-0,236786
-0,300112
-0,279985
-0,216979
-0,190251
-0,295353
-0,289899
-0,234349
-0,094623
-0,168501
-0,269692
-0,184381
-0,193542
-0,173665
-0,20735
-0,265859
-0,148835
-0,224596
-0,13503
-0,198356
-0,156295
-0,236123
-0,151791
-0,073534
-0,092342
-0,184816
-0,214995
-0,17685
-0,176278
-0,171223
-0,167863
-0,199909
-0,182544
-0,186332
-0,24226
-0,243933
-0,200978
-0,146624
-0,07414
-0,194498
-0,099574
-0,130716
-0,15117
-0,136297
-0,121114
-0,130926
-0,15518
-0,069157
-0,087677
-0,066446
-0,030041
-0,095487
-0,152515
-0,090978
-0,108107
-0,083687
-0,049877
-0,039954
-0,136988
-0,140346
-0,044151
-0,136732
-0,032561
-0,183624
-0,149674
-0,030779
-0,002189
-0,09467
-0,030303
-0,073622
-0,101771
-0,06976
-0,051755
-0,028148
-0,040374
-0,019927
0,008186
0,017486
0,007297
-0,003242
0,061254
-0,081641
-0,043855
-0,039568
-0,040569
-0,032422
-0,090036
0,018104
-0,0642
0,075272
-0,10711
0,029213
-0,059716
-0,074629
-0,016937
0,014216
0,015281
0,021381
0,036139
0,077291
-0,054025
0,000993
-0,042432
0,03541
-0,030673
0,022805
0,021852
0,003089
0,022306
0,044206
0,03322
0,005755
0,028525
-0,068491
0,011524
0,015045
0,064349
0,02423
0,068324
-0,010195
0,017096
-0,066171
0,02737
0,038389
-0,040245
0,020303
-0,013357
-0,035715
-0,058037
-0,092044
-0,053747
-0,063902
-0,073099
-0,038095
0,08236
0,044509
-0,018089
-0,031334
0,015952
-0,040996
-0,10133
-0,048565
-0,150669
-0,118119
-0,104351
-0,070574
-0,067056
-0,099627
-0,08795
-0,019656
-0,024168
-0,094466
-0,15538
-0,090144
-0,125753
-0,042561
-0,010245
-0,053361
-0,094453
-0,061489
-0,072999
-0,152415
-0,123207
-0,050383
-0,059478
-0,118444
-0,093224
-0,043777
-0,122162
-0,055955
-0,101154
-0,094606
-0,032795
-0,136395
-0,020321
-0,138227
-0,12307
-0,200446
-0,201313
-0,204308
-0,114449
-0,041344
-0,173306
-0,194666
-0,125887
-0,133717
-0,140176
-0,116591
-0,174267
-0,170887
-0,123501
-0,151531
-0,169232
-0,084935
-0,147756
-0,169729
-0,177262
-0,168514
-0,149404
-0,157079
-0,137725
-0,172117
-0,228537
-0,113119
-0,169868
-0,197091
-0,173292
-0,280515
-0,189708
-0,175828
-0,138575
-0,158916
-0,162749
-0,157946
-0,233655
-0,31449
-0,261545
-0,219695
-0,309799
-0,183718
-0,194468
-0,186012
-0,220475
-0,290327
-0,291846
-0,281323
-0,240785
-0,238427
-0,242482
-0,321331
-0,221709
-0,227525
-0,337069
-0,154349
-0,161873
-0,253139
-0,272417
-0,237127
-0,291643
-0,346874
-0,250011
-0,185413
-0,304028
-0,287897
-0,286622
-0,256359
-0,138801
-0,206034
-0,284535
-0,278293
-0,20934
-0,19144
-0,281167
-0,189635
-0,195948
-0,26192
-0,253064
-0,269047
-0,219925
-0,195321
-0,332112
-0,203258
-0,259384
-0,204413
-0,248021
-0,18942
-0,246377
-0,286266
-0,150116
-0,251173
-0,224468
-0,217599
-0,183093
-0,235856
-0,226801
-0,225154
-0,271651
-0,236085
-0,273277
-0,233842
-0,23725
-0,293724
-0,218091
-0,31273
-0,264334
-0,261579
-0,240229
-0,290347
-0,207305
-0,156821
-0,237663
-0,188795
-0,276943
-0,312139
-0,197771
-0,210661
-0,27385
-0,188406
-0,263242
-0,170394
-0,236684
-0,259987
-0,331541
-0,323441
-0,232916
-0,323686
-0,261407
-0,239408
-0,278129
-0,172498
-0,203519
-0,258335
-0,288766
-0,260308
-0,274537
-0,299383
-0,197788
-0,279805
-0,271352
-0,222576
-0,180282
-0,159428
-0,298741
-0,27654
-0,224881
-0,24899
-0,20799
-0,211278
-0,235433
-0,172835
-0,186488
-0,27727
-0,193558
-0,229411
-0,13467
-0,159603
-0,175993
-0,213394
-0,194633
-0,278406
-0,15112
-0,290959
-0,224523
-0,228477
-0,176077
-0,229656
-0,258906
-0,227102
-0,169278
-0,220549
-0,224113
-0,326176
-0,254316
-0,167272
-0,304495
-0,230009
-0,191863
-0,20886
-0,222934
-0,244416
-0,229661
-0,212574
-0,216041
-0,195899
-0,323386
-0,270705
-0,179248
-0,250732
-0,232649
-0,26971
-0,221305
-0,267602
-0,214041
-0,174257
-0,310066
-0,183233
-0,181115
-0,289615
-0,188219
-0,295091
-0,25251
-0,238748
-0,198244
-0,274973
-0,244704
-0,243254
-0,316071
-0,225794
-0,121737
-0,177403
-0,292019
-0,197582
-0,210337
-0,30706
-0,180416
-0,229928
-0,28489
-0,260755
-0,259341
-0,18361
-0,285648
-0,250196
-0,228555
-0,19988
-0,246456
-0,211755
-0,21893
-0,268599
-0,259085
-0,213273
-0,250789
-0,234481
-0,250573
-0,276743
-0,141662
-0,262603
-0,204232
-0,198653
-0,232311
-0,204408
-0,225568
-0,242425
-0,129255
-0,27541
-0,25964
-0,226787
-0,239558
-0,264335
-0,284313
-0,166013
-0,173
-0,179682
-0,161698
-0,188688
-0,135235
-0,256905
-0,174266
-0,166479
-0,185458
-0,315574
-0,203108
-0,207155
-0,204379
-0,231956
-0,182666
-0,127987
-0,172658
-0,236637
-0,283907
-0,244684
-0,196324
-0,269424
-0,164329
-0,152647
-0,210358
-0,201404
-0,126434
-0,198656
-0,298411
-0,188169
-0,18583
-0,237399
-0,081508
-0,078403
-0,26509
-0,274407
-0,182419
-0,229268
-0,296509
-0,220091
-0,202663
-0,187553
-0,181391
-0,217707
-0,301136
-0,214852
-0,194168
-0,173398
-0,237295
-0,211304
-0,19989
-0,258729
-0,278525
-0,169799
-0,298578
-0,08799
-0,19673
-0,144284
-0,07943
-0,24724
-0,142879
-0,196022
-0,170697
-0,142037
-0,202001
-0,199888
-0,137294
-0,215776
-0,201464
-0,159692
-0,190742
-0,211289
-0,243535
-0,166413
-0,213781
-0,172764
-0,075509
-0,218514
-0,198111
-0,14285
-0,244823
-0,108875
-0,132336
-0,100046
-0,1303
-0,225479
-0,186062
-0,171761
-0,228648
-0,249675
-0,182431
-0,146905
-0,189006
-0,150116
-0,23352
-0,110896
-0,180375
-0,175501
-0,195576
-0,17259
-0,128017
-0,215419
-0,202402
-0,134142
-0,228861
-0,13185
-0,139741
-0,144385
-0,200496
-0,166296
-0,192233
-0,115837
-0,226056
-0,240528
-0,158338
-0,176844
-0,160355
-0,123869
-0,124351
-0,187541
-0,185736
-0,185154
-0,225188
-0,158595
-0,194139
-0,147442
-0,156599
-0,239557
-0,199713
-0,153761
-0,177559
-0,158692
-0,144734
-0,101258
-0,220055
-0,153737
-0,193197
-0,215664
-0,209651
-0,127808
-0,179777
-0,066403
-0,231841
-0,196674
-0,183227
-0,044246
-0,05918
-0,121235
-0,141267
-0,140688
-0,214977
-0,140806
-0,236152
-0,103235
-0,201117
-0,24453
-0,179708
-0,173274
-0,192404
-0,168261
-0,148706
-0,177112
-0,280487
-0,247191
-0,172619
-0,047752
-0,176568
-0,191848
-0,17136
-0,224397
-0,096574
-0,183247
-0,129049
-0,212368
-0,044964
-0,223806
-0,214729
-0,203353
-0,080098
-0,137412
-0,121837
-0,104386
-0,211136
-0,164531
-0,143986
-0,178595
-0,155054
-0,247572
-0,168506
-0,172877
-0,132442
-0,135056
-0,033765
-0,156361
-0,135154
-0,14242
-0,127437
-0,108423
-0,139691
-0,125499
-0,24464
-0,185027
-0,104787
-0,173571
-0,149238
-0,208447
-0,123531
-0,056455
-0,190348
-0,13793
-0,175945
-0,168375
-0,128114
-0,173227
-0,162991
-0,100599
-0,152315
-0,095284
-0,040577
-0,062397
-0,134896
-0,112513
-0,089395
-0,04576
-0,096943
-0,066416
-0,138398
-0,124558
-0,036729
-0,156577
-0,113011
-0,141067
-0,127774
-0,049291
-0,145034
-0,048312
-0,117994
-0,080817
-0,077595
-0,055577
-0,175815
-0,111356
-0,093561
-0,016799
-0,12395
-0,086619
0,008902
0,012087
-0,094648
-0,097385
-0,083779
-0,05156
-0,04242
-0,018925
-0,071649
-0,052025
-0,047709
-0,108384
-0,042238
-0,025251
-0,087257
-0,052418
-0,083772
-0,132431
-0,180888
-0,095892
-0,046608
-0,084429
-0,134115
-0,049086
-0,026117
-0,097861
-0,166508
-0,122798
-0,079335
-0,127767
-0,11533
-0,140152
-0,109225
-0,015972
-0,086387
-0,218778
-0,180875
-0,12997
-0,130777
-0,177584
-0,12771
-0,114978
-0,215771
-0,120893
-0,157016
-0,124509
-0,165171
-0,123454
-0,120941
-0,169187
-0,091983
-0,118793
-0,043757
-0,077942
-0,058348
-0,12372
-0,077075
-0,169803
-0,109773
-0,157838
-0,126868
-0,207584
-0,12115
-0,259281
-0,134406
-0,160649
-0,103696
-0,104695
-0,100866
-0,162755
-0,206942
-0,120813
-0,166684
-0,133249
-0,186818
-0,116466
-0,146471
-0,141852
-0,095418
-0,110476
-0,158466
-0,202393
-0,127729
-0,182742
-0,151048
-0,266969
-0,196718
-0,1493
-0,144537
-0,174588
-0,119738
-0,147795
-0,178919
-0,168482
-0,12574
-0,187314
-0,11746
-0,13363
-0,100455
-0,181151
-0,283853
-0,145865
-0,151104
-0,21216
-0,178437
-0,202151
-0,175176
-0,150712
-0,197364
-0,206001
-0,212954
-0,225314
-0,213812
-0,241237
-0,205657
-0,223565
-0,221576
-0,228892
-0,208672
-0,193727
-0,118589
-0,19925
-0,18551
-0,139542
-0,142332
-0,170864
-0,120072
-0,228926
-0,141523
-0,22066
-0,099172
-0,056831
-0,022743
0,022454
-0,032764
0,042828
0,104596
0,079691
0,180148
0,253053
0,265659
0,352643
0,403966
0,570115
0,562668
0,650136
0,720133
0,888765
0,871633
0,898205
0,94779
1,038562
1,173227
1,146943
1,214706
1,17315
1,189215
1,13218
1,058105
1,038116
1,150065
1,010761
1,024321
0,977121
0,80831
0,786464
0,695563
0,638257
0,533359
0,365384
0,321036
0,335143
0,231135
0,113415
0,102712
-0,035434
0,025238
0,038519
-0,065732
-0,110986
-0,090432
-0,125641
-0,204971
-0,239172
-0,208987
-0,231053
-0,339006
-0,203976
-0,224211
-0,242078
-0,246211
-0,300206
-0,216364
-0,237293
-0,237557
-0,17734
-0,21811
-0,164261
-0,307719
-0,217151
-0,217336
-0,181055
-0,181114
-0,132357
-0,187904
-0,167759
-0,09952
-0,173228
-0,237666
-0,166033
-0,203013
-0,172134
-0,124077
-0,276767
-0,203463
-0,071647
-0,203628
-0,288426
-0,150991
-0,126702
-0,157869
-0,176294
-0,15951
-0,243989
-0,16522
-0,22838
-0,12356
-0,165765
-0,216706
-0,162662
-0,174211
-0,153133
-0,227061
-0,19197
-0,168069
-0,213576
-0,153835
-0,189601
-0,13699
-0,102688
-0,104513
-0,20553
-0,17672
-0,159779
-0,153444
-0,239231
-0,101576
-0,200751
-0,235482
-0,180005
-0,147452
-0,167833
-0,25032
-0,131923
-0,225859
-0,164997
-0,147762
-0,229321
-0,105751
-0,212223
-0,236143
-0,094777
-0,182794
-0,128202
-0,198346
-0,194583
-0,236482
-0,089755
-0,129277
-0,239733
-0,260317
-0,164779
-0,057842
-0,220648
-0,278394
-0,181986
-0,232108
-0,096065
-0,124166
-0,143008
-0,075378
-0,156713
-0,227588
-0,174632
-0,171063
-0,099002
-0,113843
-0,15526
-0,165795
-0,143112
-0,241628
-0,106789
-0,13155
-0,08798
-0,095759
-0,088073
-0,145426
-0,148419
-0,121542
-0,211117
-0,227505
-0,1681
-0,220128
-0,15646
-0,193833
-0,142294
-0,164562
-0,084527
-0,130044
-0,1293
-0,235741
-0,083941
-0,146595
-0,090103
-0,150034
-0,095782
-0,156477
-0,077269
-0,13746
-0,178164
-0,144525
-0,098784
-0,214981
-0,158017
-0,124376
-0,185679
-0,095351
-0,122285
-0,08906
-0,095869
-0,05824
-0,08632
-0,118587
-0,08869
-0,06856
-0,065142
-0,165982
-0,105732
-0,127599
-0,137655
-0,106678
-0,186827
-0,030962
-0,062063
-0,135983
-0,156934
-0,143034
-0,090103
-0,131096
-0,069547
-0,087336
-0,134915
-0,061217
-0,104584
-0,088517
0,027024
0,075801
-0,163184
-0,057088
-0,090461
-0,145201
0,009781
-0,006238
-0,097326
-0,001153
-0,054433
-0,028376
-0,007258
0,023625
-0,042982
0,028588
-0,03083
0,01659
-0,003349
0,037522
0,021791
0,014032
-0,020427
-0,05963
-0,025084
-0,018811
-0,032909
0,093275
0,012117
0,011955
0,08945
0,071751
-0,00654
0,041117
-0,018444
0,050784
0,008537
0,059306
0,040421
0,009059
-0,057753
0,022203
0,110987
0,087962
0,012482
0,145126
0,108251
0,075459
0,101106
-0,023886
0,084223
0,026262
0,133765
-0,005675
0,010051
0,123455
0,080292
0,016144
0,10888
0,080392
0,129865
0,031672
0,01677
0,147161
0,064947
0,102744
0,065805
0,052637
0,064542
0,13482
0,130142
0,135891
0,066718
0,002355
0,097876
0,036975
0,015801
0,142758
0,103954
0,030289
0,078895
0,126195
0,07223
0,090164
0,123665
0,110622
0,135788
0,113894
0,067411
0,132504
-0,010145
0,070381
0,061796
0,11498
0,015086
0,115714
-0,030469
0,101744
0,050004
0,045747
0,044233
-0,051377
0,013407
0,07034
0,072327
0,101891
-0,035799
0,077826
0,005891
0,089844
-0,02703
0,070196
0,076691
0,06512
0,044372
0,042019
-0,005271
-0,078301
0,004048
0,110649
0,071114
0,0122
0,087968
-0,024244
0,018282
-0,014372
0,064191
-0,022248
-0,052968
-0,057887
-0,056784
-0,000416
-0,036817
-0,085361
0,001656
0,015186
-0,04529
-0,16136
-0,011259
-0,088412
-0,034558
-0,035334
0,077249
-0,036562
-0,123919
-0,046628
-0,100234
-0,043214
-0,077829
-0,030743
-0,048279
-0,055832
-0,047514
-0,080201
-0,107454
-0,029028
-0,108586
-0,073956
-0,073785
-0,191952
-0,084197
-0,142101
-0,174008
-0,119442
-0,113463
-0,046769
-0,032719
-0,109975
-0,145887
-0,158233
-0,164079
-0,20181
-0,141886
-0,126329
-0,08374
-0,192402
-0,123387
-0,131205
-0,068741
-0,209271
-0,108538
-0,220172
-0,123214
-0,192248
-0,116529
-0,16622
-0,253451
-0,146149
-0,134005
-0,124312
-0,081432
-0,123838
-0,179735
-0,1554
-0,141916
-0,095627
-0,132155
-0,093039
-0,163712
-0,199064
-0,182123
-0,154455
-0,21887
-0,225926
-0,167378
-0,086653
-0,113807
-0,155887
-0,242481
-0,194629
-0,235212
-0,160516
-0,250908
-0,184546
-0,129182
-0,250763
-0,059687
-0,183389
-0,181616
-0,205634
-0,184258
-0,10962
-0,121433
-0,211093
-0,262374
-0,222108
-0,138495
-0,140132
-0,180049
-0,137825
-0,2042
-0,101574
-0,167582
-0,251384
-0,065999
-0,099842
-0,223688
-0,089447
-0,104932
-0,19744
-0,175642
-0,302488
-0,161954
-0,231779
-0,203796
-0,166349
-0,185885
-0,219451
-0,151595
-0,220089
-0,203311
-0,247187
-0,155214
-0,181917
-0,186895
-0,147643
-0,194634
-0,096425
-0,094062
-0,277929
-0,241203
-0,134713
-0,246262
-0,165377
-0,031334
-0,246799
-0,261045
-0,155481
-0,087645
-0,227516
-0,168185
-0,132496
-0,139747
-0,246672
-0,183125
-0,006563
-0,189296
-0,184891
-0,164342
-0,114591
-0,171724
-0,108266
-0,154643
-0,197107
-0,198487
-0,156885
-0,206693
-0,21092
-0,242364
-0,150261
-0,190915
-0,17944
-0,128479
-0,114521
-0,17908
-0,098612
-0,174071
-0,211777
-0,211711
-0,199583
-0,17073
-0,279681
-0,22634
-0,287845
-0,107236
-0,204642
-0,209785
-0,166409
-0,222374
-0,086576
-0,240211
-0,074269
-0,248414
-0,206013
-0,183799
-0,200708
-0,306904
-0,289331
-0,165596
-0,224034
-0,136428
-0,218518
-0,176711
-0,247649
-0,059814
-0,14206
-0,204668
-0,147334
-0,15626
-0,143261
-0,187022
-0,159948
-0,185547
-0,20051
-0,190398
-0,214359
-0,16001
-0,143736
-0,134573
-0,135853
-0,199977
-0,188005
-0,15626
-0,146114
-0,154159
-0,127662
-0,164564
-0,187908
-0,192346
-0,143378
-0,117772
-0,227828
-0,076747
-0,163313
-0,186674
-0,118197
-0,179224
-0,19618
-0,196224
-0,190782
-0,200256
-0,11042
-0,202314
-0,136621
-0,161319
-0,189686
-0,160163
-0,209302
-0,163041
-0,165027
-0,164302
-0,181422
-0,145393
-0,232847
-0,201668
-0,18256
-0,185384
-0,188233
-0,152263
-0,185389
-0,2448
-0,111945
-0,175146
-0,140611
-0,183472
-0,121935
-0,136548
-0,174314
-0,142605
-0,092205
-0,198097
-0,279191
-0,167072
-0,175703
-0,194196
-0,123744
-0,172333
-0,140412
-0,177945
-0,149641
-0,111619
-0,16569
-0,18858
-0,101975
-0,171498
-0,081783
-0,158626
-0,145203
-0,118743
-0,154376
-0,185528
-0,153259
-0,138114
-0,118905
-0,150959
-0,116124
-0,130683
-0,230489
-0,147499
-0,152687
-0,134926
-0,147316
-0,092408
-0,20847
-0,220044
-0,18116
-0,223602
-0,166311
-0,167877
-0,234231
-0,275107
-0,122897
-0,157309
-0,14857
-0,155124
-0,163131
-0,150487
-0,257504
-0,172733
-0,165107
-0,164413
-0,195694
-0,184313
-0,206576
-0,259296
-0,273955
-0,144789
-0,212283
-0,148201
-0,078649
-0,219505
-0,139976
-0,155317
-0,21925
-0,123788
-0,231031
-0,187863
-0,12698
-0,224373
-0,166771
-0,208612
-0,124592
-0,184392
-0,232372
-0,188894
-0,125849
-0,131587
-0,196051
-0,186702
-0,193769
-0,130186
-0,1786
-0,219096
-0,243476
-0,179559
-0,175354
-0,13525
-0,149383
-0,081936
-0,192955
-0,236773
-0,233017
-0,104225
-0,152419
-0,159414
-0,16007
-0,207787
-0,164291
-0,192875
-0,128931
-0,198731
-0,161506
-0,212476
-0,143077
-0,072641
-0,214566
-0,199183
-0,10213
-0,097786
-0,088864
-0,143907
-0,120968
-0,02257
-0,220032
-0,164083
-0,181145
-0,144621
-0,130136
-0,241826
-0,159618
-0,141967
-0,182787
-0,168661
-0,103028
-0,218338
-0,098545
-0,14678
-0,16578
-0,148855
-0,127564
-0,13687
-0,218021
-0,114187
-0,235058
-0,106182
-0,210831
-0,05566
-0,222487
-0,302833
