Signal
-0,214785
-0,149629
0,701039
1,135212
0,533537
0,398595
1,010090
1,170284
0,128234
-0,670054
0,890905
0,021148
-0,052642
0,202895
-0,496818
0,036155
-0,966673
-1,207572
-0,361693
-0,518280
-0,071567
0,067607
-0,511592
0,648835
0,098089
0,663701
1,295149
0,837100
-0,309534
0,241110
0,279304
-0,830845
-0,260950
0,225530
-0,424873
-1,569855
0,161316
-0,884741
-0,660147
0,100577
0,045848
0,505507
0,197826
-0,089070
0,141535
1,158211
0,027521
0,971909
0,325262
0,293582
-0,508533
-0,239350
-0,974108
-0,463054
-0,552455
-0,148771
-0,938556
-0,849104
-0,798121
0,003337
0,036706
0,258668
0,523347
0,265294
1,286014
0,294595
0,605694
0,260172
0,016737
0,379919
0,761463
0,158609
-0,404998
-0,366304
-0,184578
-0,936619
-1,320700
-0,610577
-0,681922
0,260915
-0,388191
0,361879
0,568944
-0,062499
0,978377
-0,292645
0,559149
0,317957
0,137445
0,146781
0,443687
-0,361706
0,183382
-0,613821
-0,662389
-0,636164
-1,383887
0,001276
0,110870
-0,937464
-0,189624
-0,597719
-0,299573
0,846903
0,985272
0,161407
0,514015
0,563444
0,662750
-0,354969
0,187457
0,385132
0,564556
-0,654872
-0,412634
-0,874527
-0,292415
0,373497
0,919744
-0,281535
-0,328477
-0,011334
0,095871
1,259998
0,541622
0,944500
2,185051
0,901670
0,692900
-0,581999
-0,044431
-0,177241
-0,375697
0,271879
-0,226796
-1,180450
-0,541031
-0,489239
-0,608945
-0,860965
0,041785
0,619991
-0,288582
0,411446
0,424123
0,338623
1,324419
0,347556
0,744440
0,765482
-0,758158
-1,264531
-1,409650
-0,859783
-0,533346
-0,687902
-0,660355
-0,229105
-0,360588
-0,659218
-0,686494
0,779750
1,134645
0,439181
0,530870
1,247611
0,841238
0,162440
0,096881
-0,227578
-0,279679
-0,231012
-0,145016
0,552516
-0,385932
-0,414471
0,292382
-0,778363
0,092053
-0,686954
-0,258186
0,301425
0,825000
1,194747
-0,176598
-0,415325
0,337748
0,223228
0,746618
-0,992733
0,480121
0,072849
-0,685204
-0,256497
-0,109915
0,014221
-0,312476
-0,418496
-0,576563
-0,556342
-0,951038
0,213197
-0,485209
1,111712
0,206937
0,595749
0,892429
0,386473
0,795207
-0,649017
0,968955
0,721188
-0,030694
-0,806283
-0,336225
-0,978448
-0,217890
-0,309280
0,088577
0,465501
0,739557
0,842888
-0,283446
0,319102
1,105605
0,416604
0,326540
1,164875
0,153517
0,355133
0,166645
0,326906
0,164261
-0,097005
-0,341585
-1,287688
-0,473136
-0,396323
-0,043285
0,343013
-0,180146
0,153701
1,028188
0,133269
0,433562
1,337725
0,485890
-0,117623
0,274934
0,198762
-0,939352
-0,033542
0,067558
-0,200144
-0,875678
-1,155044
-1,134381
-1,174605
-0,411420
-0,630436
0,043495
-0,617058
0,041083
-0,080634
1,196948
0,737947
-0,385532
-0,523504
0,587271
-0,554003
-0,396148
0,631025
-0,017998
-0,608214
-0,742345
-0,085659
-0,111534
-1,016271
-0,621542
-0,733698
-0,083411
-0,122532
0,063250
1,183233
1,030506
-0,107756
0,290024
0,697649
-0,292744
0,294846
-0,330743
0,159891
0,698759
0,350052
-0,464733
0,843446
-0,244904
0,552280
-0,519505
-0,800637
-0,572276
0,046373
-0,440268
0,548057
0,975372
-0,345899
0,369615
0,801204
-0,770861
0,703057
-0,328763
-1,148789
-0,396306
-0,430739
-0,515890
-0,303618
-0,419143
-0,273718
0,205809
-0,583454
-0,131371
-0,945851
-0,260820
1,030516
-0,161379
-0,296448
0,383830
-0,820950
0,369258
-0,685502
0,329188
-0,224085
-0,456444
-0,153872
-0,174004
-0,577328
-1,597846
-0,458424
0,689239
-0,625192
0,259513
-0,114675
1,031200
-0,209448
1,299680
0,847964
0,030334
0,378877
0,765294
0,183910
-0,440254
-0,416381
-0,637491
0,543091
-0,373245
-0,666802
-0,710937
-0,514431
0,072383
-0,052266
-0,070209
0,150160
-0,517855
0,856552
0,623308
0,658223
0,566995
0,285087
0,565533
0,935186
0,103052
-1,163725
-0,661209
-0,337915
-1,097629
-0,780080
-1,607875
-0,516963
-0,153927
0,893872
0,356940
-0,570752
0,495847
-0,050820
0,511756
-0,297667
0,125206
1,429242
0,687539
0,578933
0,057393
-0,267657
0,925822
0,204078
0,231319
-1,190593
0,168531
-0,992462
-0,419647
-0,247365
-0,080409
-0,246539
0,817638
0,746211
1,232340
0,741823
0,291511
0,747428
0,755565
-0,496576
-0,572739
-0,427248
-0,602695
-0,371620
-0,152958
-1,359659
-0,047611
-0,662285
0,111223
0,825564
0,002043
0,134923
0,658527
0,723724
1,034074
0,398517
0,152599
0,905546
1,403245
0,848460
-0,170856
0,316974
-0,089548
0,054140
0,143795
-0,586490
-0,963380
-0,614571
-0,800942
-0,096840
0,395478
0,925075
-0,124759
-0,009022
0,790612
0,468760
-0,387919
0,763155
0,200923
-0,396921
-0,239979
0,691729
-1,044400
0,176017
-0,913342
-1,062432
0,496568
-0,352151
-0,054008
-0,679021
0,359879
-0,222542
0,440616
0,524041
0,424741
1,011516
0,625850
0,825190
-0,010323
-0,299931
0,581724
-0,287590
-0,176243
-1,102305
0,007624
-0,367224
-0,440418
0,262177
-1,112759
-0,816465
0,294778
0,987831
1,469362
0,503547
0,285444
1,000323
-0,001159
1,238542
1,380830
0,699563
0,081851
0,451879
-0,832329
-0,343114
-0,840568
-0,393138
-0,625190
0,460827
-0,386787
-0,848582
-1,085880
-0,727613
0,505196
-0,184763
0,037783
0,487130
0,701245
-0,136105
0,029116
-0,025005
0,194292
-0,282603
-0,109605
-0,142527
-0,382316
0,049855
-0,967947
-1,458571
-0,212223
-0,137701
-0,285832
-0,684629
-0,042097
0,304532
0,319768
0,931543
-0,124598
0,514851
-0,099052
-0,154397
0,175441
0,092707
-0,041688
0,233847
0,003718
-0,524338
-1,493096
-0,608555
-0,804127
-0,122477
0,106046
-0,306062
-0,213841
0,553642
0,669587
0,452446
-0,375317
0,763171
0,806932
-0,139198
-0,471946
-0,209644
-0,544564
-0,648151
-0,661963
-0,165879
-0,808670
-0,860465
-0,552002
0,301428
0,726675
-0,270080
0,640637
0,917185
-0,006707
0,698015
0,755779
0,188140
-0,042033
-0,699965
-0,506431
-0,655427
-0,168565
-0,236621
0,337525
-0,688533
-0,842794
0,349552
-0,630918
-0,766858
-0,403290
0,545379
0,533790
0,739505
-0,025047
0,694691
0,028272
0,720125
-0,317041
-0,180640
0,286552
-0,487755
-0,200473
-0,012990
-0,848892
-0,328310
-0,361819
-0,157375
-0,196163
0,290394
-0,498573
0,773052
0,005679
0,248326
0,987653
0,636317
0,124113
0,496396
-0,060805
1,246435
-0,124276
0,058936
-0,327457
-0,091157
-0,444255
-0,703766
-0,634292
-1,773608
-0,210307
-0,221684
0,425259
-0,839329
-0,212551
0,167691
0,062433
0,063064
0,063949
0,315242
0,451904
-0,159551
-0,253925
0,018852
0,671259
-1,272465
0,075511
-0,701831
-1,356051
-0,955541
-0,267366
-0,819565
-0,246853
-0,827585
1,329292
-0,120967
0,536195
1,245851
0,476446
0,158457
-0,524072
-0,161836
0,099996
-0,229046
-0,559229
-0,178563
-0,141033
-0,391874
-0,132180
-0,693464
0,246583
-0,241942
-1,045623
-0,668533
0,006843
0,513796
0,644956
-0,186342
0,966913
0,443811
0,232457
0,457756
-0,367876
0,332656
-0,056968
-0,462775
-0,293929
-1,353208
0,097560
-0,844190
-0,063223
0,582079
-0,069623
-0,402147
0,130803
-0,355730
1,218693
0,995044
0,540878
0,605999
-0,299296
-0,403420
-0,996842
-0,022978
-0,067185
0,102263
-1,117516
-0,910273
-0,710995
-0,842121
-0,416183
-0,396680
0,650005
0,664713
-0,265079
0,631077
1,283456
0,443379
-0,090830
1,666616
0,361255
-0,258553
-0,489845
1,244788
-0,903951
-0,917632
-0,001922
-0,633301
-0,453798
-0,277093
0,471994
-0,014093
0,604793
-0,355360
0,226628
0,362763
0,246765
0,749798
1,281466
0,783922
-0,265480
0,673781
-0,428675
-0,724769
0,268139
-0,356470
-0,053566
-0,711934
-0,189057
-0,563560
-0,443943
-0,334956
1,062962
-0,448981
-1,377105
0,344460
0,035503
0,644139
0,362757
0,080429
-0,181399
0,110393
0,248277
-0,328758
-0,743601
-1,042711
-1,068837
-0,943025
-0,463877
-0,677416
-0,962732
0,353091
-0,776834
0,101692
0,827406
1,115823
-0,723667
0,688213
0,926930
0,000550
1,060914
0,306860
0,306528
-0,296473
-0,372251
-0,326132
-0,356379
-0,951904
-0,004332
-0,425875
-0,763201
0,001616
0,547362
0,208613
0,135125
-0,042346
0,290608
1,095197
-0,150173
0,334170
0,419061
0,096371
-0,072642
0,331381
0,129104
-0,778510
0,028404
-0,532150
-0,997538
0,682262
-0,335412
-0,677917
-0,351625
0,839827
-0,369634
-0,052034
1,214575
2,143211
0,800353
-0,469424
1,716974
0,620161
0,192379
0,681298
-0,895603
-0,246175
-0,214614
-0,511638
-0,651342
-1,141859
-0,432672
-0,331586
0,393314
-0,085476
-0,645347
0,209840
0,139527
-0,136408
0,316496
-0,533689
0,198378
0,243990
0,047290
-0,156452
-0,540044
-0,495233
0,099193
0,048943
-0,093091
-0,783858
0,071370
-0,336352
0,552289
-0,298083
0,837400
0,819631
0,312992
0,781820
0,763055
0,367366
-0,238790
0,923060
-0,406081
-0,343034
0,062615
-0,299681
-0,284489
0,379494
-0,471525
-0,381465
0,018799
0,804371
0,649648
0,135542
0,870154
-0,490975
0,631885
0,994390
0,743317
0,117354
-1,355086
0,108770
-0,192395
0,105801
-0,569252
-0,157766
-0,775672
-0,765025
-0,670277
-0,139432
-0,293342
-0,359076
0,285638
0,220196
0,142596
-0,669971
0,307357
0,281059
0,243793
-0,372384
0,667348
0,568181
-0,224653
-0,182145
-0,897826
-0,230653
-0,564985
-0,532264
-0,034696
-0,363916
0,148069
-0,462380
1,194806
1,102203
-0,080893
1,398082
0,318477
0,096139
1,803521
0,252157
-0,160148
0,012330
-0,367015
-0,039158
-0,911521
0,099366
0,595982
-0,971675
-0,240658
-0,071883
-0,208750
-0,011823
0,271994
-0,691299
0,913754
-0,798360
1,029114
1,001070
0,209879
-0,013518
-0,208517
-0,394564
0,529248
-0,836400
-1,037531
0,456604
-0,075961
-1,431370
-1,286692
-0,244603
-0,320599
-0,739370
-0,520829
0,091650
-0,211487
-0,141274
0,568865
0,690482
1,152052
0,986247
-0,501840
-0,121133
0,007343
-0,241163
-0,304702
0,369501
0,006214
-0,773771
-0,951951
-0,407733
-1,077383
-0,585482
-0,450092
0,772466
-0,064346
1,364152
1,486032
0,720131
0,159224
0,856856
-0,692800
-0,193264
0,717766
0,576521
-0,174673
-0,570995
-0,936609
-0,992292
0,010618
-0,589713
-0,418666
-0,032949
0,481407
0,321609
0,557984
-0,224857
0,248533
1,446241
0,687196
0,093925
0,106529
-0,545567
-0,181038
0,265886
-0,393761
0,099459
-0,935805
-0,652149
0,396341
-0,257897
-0,013879
0,210279
-0,675083
1,281116
-0,007088
-0,434618
0,352640
0,312738
0,978139
0,161970
0,066989
-0,182192
-0,486383
-0,339698
0,477607
-0,467341
-0,447878
-0,255104
0,246321
-0,686476
-0,148555
-1,192848
0,759263
-0,302532
0,425197
0,827249
-0,079018
0,514397
0,204784
0,837487
0,711444
0,387548
-0,058883
-0,093283
-0,367832
-0,074111
0,074348
-1,015450
-0,980621
-1,409542
0,185795
-0,124392
-0,194291
0,640762
0,285854
0,933668
0,400679
1,738199
0,024564
-0,693430
0,325508
0,457290
0,372574
1,064211
-0,638446
-0,431145
-0,753315
-0,579699
0,320779
-0,612994
-0,129919
-0,020434
0,755833
0,196683
0,437390
-0,491786
1,377195
0,554432
0,642854
0,326148
0,025085
1,034501
-0,031775
-0,057744
-0,553776
-0,371199
-0,915636
-0,560874
-1,205781
0,015076
0,642015
0,510199
0,161776
0,903943
1,114373
0,531000
0,212834
0,745898
-0,105730
-0,114160
0,588655
1,105725
-0,117938
1,414118
-0,814642
-1,617596
0,006934
-0,549349
0,013999
-0,163600
0,420649
-0,330772
0,288564
0,595549
-0,268752
-0,483337
0,536020
0,700728
0,365642
0,908342
0,158746
0,203940
-0,361002
-0,291761
-0,058310
-0,167001
0,071726
-0,484268
-0,625388
-1,246414
-0,839245
0,001478
-0,440451
-0,504839
0,538442
1,107210
0,480495
0,518419
0,974973
0,528429
0,573237
0,166228
0,191776
0,089911
-0,917738
-0,961096
-1,237267
-0,993668
-0,551375
0,299086
-0,303488
0,746391
-0,220890
0,533552
0,354719
0,886539
2,248583
0,454320
0,191877
-0,055258
0,411050
-0,197763
0,198847
-0,364222
-0,990486
-0,318683
-0,357699
0,160318
-1,535660
-0,956637
0,180280
0,340372
0,438553
0,542523
0,616678
0,625435
0,019361
0,412678
-0,291981
0,431661
-0,204996
0,194535
-0,118309
-0,294114
-0,758581
-1,733967
-0,445562
0,051223
-0,810691
-0,035102
-0,042551
-0,068709
-0,263288
1,472739
-0,351017
0,827689
0,061006
-0,176365
1,085500
0,051174
-0,785623
0,340332
0,913986
-0,887135
-0,710811
-0,455229
-0,854102
-0,224138
-0,506738
-0,308927
0,023867
0,673764
-0,714857
-0,221346
0,154116
0,743289
0,264505
0,296793
-0,109773
0,242729
0,087585
0,214916
-0,347491
-0,803236
-0,557542
0,383363
-0,628007
-0,195616
-0,026025
-0,830541
-0,204779
-0,163404
0,273632
-0,103594
0,677485
1,135013
0,557738
0,842499
0,013741
-0,257848
0,364900
0,365313
-0,561957
-0,662020
-0,452313
0,226382
-0,142331
-0,214624
-0,630631
-0,680376
-0,656917
-0,471435
-0,544388
0,492968
0,084840
-0,087392
0,251237
0,471682
0,163299
0,150259
0,751565
0,071120
-0,043884
-0,209093
0,191461
0,064001
-0,431146
-0,391841
-0,642567
-1,148042
-0,388924
-0,820364
0,510398
0,237849
0,285453
0,961094
0,537735
-0,343981
1,722416
1,196295
-0,251876
1,061393
-0,158105
0,140556
1,219380
-0,601222
-0,369460
-0,251278
-0,268372
-0,960385
-0,507305
-0,586313
0,030207
0,414075
0,128653
-0,198982
0,595858
0,623314
0,776987
0,860339
0,062774
-0,927378
0,323656
-0,136617
-0,106227
-0,463522
0,291978
-0,935756
-0,643999
-1,608396
0,310825
0,030637
0,251297
0,138660
0,348705
0,090796
0,919296
0,480252
0,679803
-0,048428
0,142553
0,855656
-0,108776
0,120638
-1,400803
-0,742784
-0,773995
-0,539973
-0,220934
-1,184189
-0,154304
-0,378598
0,264984
1,106757
0,306113
0,870401
0,805692
-0,214519
-0,141311
0,027597
0,302935
-0,281269
-0,027479
0,584930
-0,522523
-0,771433
-0,732038
-1,256205
-0,934536
-0,664775
-0,110938
0,110573
-0,035605
-0,686832
0,056560
1,124944
-0,625122
1,566146
-0,853168
0,403697
0,810486
0,835802
0,474369
-0,676902
-1,073716
-0,217676
-0,912726
0,351752
-0,260408
-0,023298
0,006585
0,142558
-0,297876
-0,169682
0,060816
1,634162
0,084358
1,166975
0,341159
0,587613
0,176673
-0,665871
-0,156623
-0,911573
-0,216308
-0,385925
-1,134694
-0,722551
-0,710396
-0,356853
0,077545
-0,815966
-0,068431
0,175090
-0,119139
0,086516
0,227621
0,097270
0,333010
0,586187
0,406132
0,326032
-0,601454
-0,144779
-0,439576
-0,483010
-0,474216
-0,335335
-0,773897
-0,428278
0,314007
0,670742
-0,074125
0,975465
0,073105
0,362051
0,199450
0,435541
0,554315
0,163967
0,065400
0,762250
-0,031596
-0,052033
-0,083899
0,053410
-0,525265
-0,182630
-0,861830
0,753192
-0,507355
0,201183
0,915926
-0,444266
1,107102
0,286985
-0,110691
0,393038
0,561854
1,140554
-0,088050
-0,773196
-0,862051
-0,365703
0,234327
0,874949
-0,459163
-0,913806
-0,460961
-0,270179
-0,300517
-0,792766
0,555276
0,543571
0,959689
-0,199035
-0,139928
2,056171
0,241240
1,556471
0,752736
-1,074117
1,607681
-0,021656
-1,027638
-0,595167
-0,012275
-0,627608
-0,292914
-0,693434
0,761187
0,381831
-0,434769
1,044637
0,144807
-0,131167
0,276929
0,620103
-0,117568
0,336558
0,481958
0,441108
0,192960
-0,407770
-0,323223
-0,236049
-0,410105
-1,013649
-0,360844
-0,509900
-0,161335
-0,169963
0,593784
-0,669430
0,295347
-0,013347
-0,230142
0,037915
-0,259749
1,201846
-0,354166
0,123387
-0,209015
-0,296843
-0,972819
-0,277234
-0,784228
-0,931172
-0,046656
0,177307
-0,125841
-1,137873
0,211532
0,334163
-0,251637
0,073181
-0,402195
0,735490
1,262795
-0,531396
1,459137
0,148751
-0,123449
-1,151264
0,115375
-0,000285
1,092260
-0,929857
-0,204822
-0,568328
-0,655119
-0,644477
-0,253224
-0,098084
-0,552838
0,436799
-0,123779
1,385043
1,080778
0,011493
0,277908
0,939708
0,639373
-0,296071
-0,322412
0,171556
-1,009967
-0,732965
-1,095660
-0,488736
-0,541808
-0,460774
-0,455573
-0,594571
0,106154
0,557194
0,162190
0,183037
0,580580
1,163000
-0,257345
-0,250800
0,764900
0,209293
0,367432
-0,051559
-0,537110
0,369470
-0,367920
-0,811781
-0,350536
0,386046
0,024806
-0,431445
-0,617380
0,709012
0,372200
0,485965
0,600630
0,080893
0,668559
0,266817
-0,687054
-0,419608
-0,684704
-0,536327
-0,009818
-1,386528
-0,396356
0,309682
0,033314
-0,301823
-1,045636
0,044136
-0,039056
0,979295
0,582700
0,324362
0,526106
-0,336026
0,402920
0,187428
-0,505204
0,266803
0,169484
-0,252900
-0,888501
-0,540432
-0,483573
-0,471926
-0,650850
0,293005
0,847418
-0,542208
0,302466
1,057079
-0,183846
0,088209
0,491235
0,404283
0,544735
0,504013
-0,389118
0,321455
-0,469079
-1,035509
-0,169642
-1,437706
-0,463129
-0,376192
0,808773
0,133268
0,972662
-1,124676
0,391395
0,542405
-0,042388
0,264934
0,328644
0,097048
-0,200176
0,416239
-0,396541
0,293989
-0,082548
-0,498003
-0,680301
-0,739919
-0,868565
-0,931983
-1,489725
-0,269092
0,719256
-0,083442
-0,445721
0,410382
0,298522
0,575283
-0,906284
0,595791
-0,303753
0,756843
-0,121922
-0,065630
-0,789248
-0,209325
0,236111
-0,682695
0,108641
0,005404
-0,997166
-0,387361
0,363446
0,496221
0,290566
0,219987
-0,310951
1,333346
0,672844
0,509253
-0,269081
-0,583829
-0,315530
0,372258
0,326656
0,563299
-0,533443
-0,385831
-0,129303
-0,357821
-0,210684
-0,222163
-0,129001
0,468147
0,437754
0,269492
1,038253
-0,285146
0,442713
0,996484
0,826633
-0,606366
-0,124552
0,577246
-0,578364
0,366290
-0,543424
-1,100297
-0,661059
-0,351127
0,507691
0,254616
0,024103
0,416910
0,201225
0,880946
0,447071
0,633157
0,514301
-0,107706
1,179702
-0,246013
0,393575
0,077167
-0,345814
-0,094995
-0,157740
0,177415
-0,688182
-0,544783
-0,218102
-0,520531
1,213310
-0,146649
-0,249185
0,447843
0,227836
0,508348
0,180219
0,077328
0,618253
0,105600
0,144374
-0,222561
-1,100988
0,008715
-0,777413
-1,263869
0,256185
-0,066718
0,140362
-0,236927
0,471915
0,318088
0,484920
-0,387713
1,095372
0,432881
0,459610
0,595993
1,320054
0,010488
0,044181
0,426635
-1,052317
-1,263306
0,906606
-0,279397
-1,211764
-0,765922
-1,019137
0,557468
-0,420177
-0,122053
0,124885
1,161208
-0,123065
0,583857
0,237484
-0,435764
0,573149
-0,189005
1,530906
0,423448
-0,014759
-0,614644
-0,901190
-0,680959
-0,916259
-0,476239
-0,644893
-1,853666
-1,334177
-0,451787
0,756708
-1,979273
0,441959
1,263591
0,146368
0,657383
1,769689
0,595575
-0,209489
0,026541
-1,374845
-1,789360
-0,345988
-0,770821
-0,582901
-0,092154
0,176667
0,221047
0,263362
0,847536
0,001175
0,524821
0,481361
0,432037
-0,426284
-0,311370
-0,794213
0,155460
-0,249853
0,101715
-0,658340
0,245019
-0,416259
-0,720380
-1,780156
-1,255194
0,435696
-1,169079
-0,312268
-1,319589
0,753989
0,374956
0,884552
1,672304
1,552171
0,480641
0,367438
-0,785267
0,009048
-0,182932
0,332358
-0,122739
-0,346212
-1,810432
-1,589040
-1,939036
-0,939733
1,064589
-0,214939
-1,106235
1,290883
0,766476
0,403655
0,414693
1,661699
-1,322001
-0,627440
-0,964308
0,262954
-1,108094
0,441194
1,522010
0,893267
-0,989737
0,826796
-0,494252
-1,043170
0,870616
-0,022217
-0,223273
1,232073
-0,321813
1,912523
1,109242
-0,486834
0,445152
0,830824
0,763746
1,350665
1,136230
0,223588
0,227012
-3,182527
-1,276112
-0,054766
-0,501545
0,131473
-0,083084
1,964413
0,610363
1,422349
1,672461
-0,242755
0,587396
1,047236
0,385298
0,204721
0,301760
-0,596251
0,431401
-0,178510
-0,468446
-0,816385
1,666314
0,903228
-0,851271
-0,844925
-1,676785
0,074918
-0,264462
1,088811
-1,057543
-0,516259
0,234345
0,423781
0,400973
0,193367
0,037418
-1,153721
-1,497032
-0,296745
1,051283
2,084566
-1,433838
-0,486996
-1,750551
0,142502
-2,246462
0,788669
0,881860
-0,146686
1,070135
0,996456
1,683520
-0,878485
-1,083352
-0,098449
0,913035
-0,375211
0,038795
-3,508253
-1,619048
0,844163
-1,983093
-1,105845
-0,934474
-1,830066
-0,500044
1,011921
0,398500
0,594946
0,871428
0,416537
1,323178
3,376275
0,078954
-0,010734
-0,119595
1,064942
-0,497164
0,986350
0,026009
-2,157955
1,462110
0,377203
-0,301364
0,451209
-0,548071
1,295349
2,562836
0,651513
0,617600
-0,035850
1,682987
1,183816
1,697854
-1,144791
-0,040342
-1,932378
-1,416081
-1,849027
-2,046865
-0,112094
-0,088506
1,900800
-2,692522
-0,599757
-1,483723
-0,989823
0,442518
1,369221
1,350890
1,329259
1,727980
0,691135
-0,169176
-2,440755
-3,590413
-2,042185
-1,747764
1,953885
1,948313
0,438774
-0,486639
-0,639795
-1,335381
-0,911058
-0,946396
-1,755132
0,132937
-0,161734
-0,388072
-1,717412
-1,310145
3,252850
1,908040
1,546659
-0,729724
0,899174
-1,701999
-0,407402
0,953010
1,149033
-1,531283
-4,210069
-1,313432
0,723677
-0,637460
-0,936108
-0,057470
0,761542
-1,049177
-0,178010
0,249894
-0,161958
-0,325114
1,144494
2,156966
0,228560
0,457910
1,164606
0,228150
0,383640
-0,084311
-2,206150
-2,752312
1,246211
-1,642042
0,753411
0,120053
0,908032
2,038885
-0,176966
0,652011
-0,210473
-0,544538
-3,054492
-1,242881
-1,310101
-0,255780
0,166729
-1,639938
-3,237864
0,802510
-1,690777
-0,614923
1,495849
2,960381
4,008791
1,689203
2,168363
0,634030
0,079093
-0,883478
1,223947
1,183006
-0,360943
-1,114742
1,084300
-1,549048
-1,329643
-2,041465
1,790429
-0,477438
0,285368
2,315854
1,043554
-0,564407
2,847079
3,616953
2,919761
1,237825
1,918209
0,478035
-2,230111
-0,925476
-2,682773
-2,512699
1,453371
2,777185
0,085056
-0,488368
-1,128463
1,305821
-1,747011
0,345562
-1,726526
-3,083494
0,135474
-1,486742
-1,702327
0,612505
-1,579612
-0,792014
-2,673094
2,478080
3,400155
0,457326
-1,329065
1,048515
-1,191727
0,320462
-4,094446
-1,006790
1,053600
0,929172
1,917183
0,439422
-2,068829
-3,777516
0,299890
1,818019
4,736384
2,140988
0,121507
-0,925002
-0,694426
-0,358052
1,963229
1,780781
1,464530
1,362765
-0,213793
-0,811994
1,718414
2,451073
2,713268
-0,025955
0,365256
1,077964
3,462153
2,258303
-0,769360
-0,655454
2,732349
0,521696
-0,921379
-0,481639
1,532197
2,700376
3,690472
3,150849
-0,342828
-0,416081
-3,321560
-0,472102
0,543254
0,055298
-3,737240
-3,390075
1,912504
1,136108
0,765368
-0,008666
-0,018135
0,392628
-0,511357
-1,063708
0,784762
-0,374096
2,565346
3,122770
0,756737
-5,402103
-1,917114
-1,611259
-1,611054
-0,791283
2,084769
1,494656
3,001190
4,817574
-0,290373
-0,370858
-3,403378
-3,716080
-3,345617
-0,828489
1,056042
0,699800
-0,312257
-0,382811
-2,571800
-1,407563
-1,348596
-3,131229
-0,344773
2,035492
2,625706
2,553983
2,402836
0,577262
0,223989
2,554065
3,865361
3,661180
-2,675312
-2,230479
-0,515684
-0,343798
-2,492054
2,826866
3,097332
1,795276
0,940376
-1,947885
-1,357003
-1,404324
2,370855
-1,351699
-1,523894
0,000712
-1,509402
-0,204086
-3,198491
2,685781
1,676447
-0,387965
0,928008
-0,008235
-0,940206
-1,804657
-2,108977
1,851028
2,953061
1,178812
-1,358236
-2,019374
-2,119470
0,567167
1,802355
0,521047
-1,563102
-1,949623
-0,146302
-0,258631
0,062830
0,048489
-0,137952
-2,745204
-0,021664
0,364124
-2,092887
-1,082683
-1,884371
3,160365
-0,755710
0,957532
1,895075
-0,667987
-1,770463
3,009679
3,994980
2,275029
2,139380
-0,587589
-0,219035
-3,291923
-3,353604
0,777755
3,439197
-0,438062
-0,447889
-2,234238
-1,969400
-3,712016
-2,444059
-1,410852
-2,026976
1,062640
2,483450
0,673785
2,487988
2,367949
2,723091
3,393346
-0,049357
-3,571341
-0,830407
0,160076
0,759894
1,304225
-2,884357
0,330294
-0,155973
0,068778
0,060926
-1,763636
0,452457
3,910937
3,109788
-1,378228
-0,749051
0,508166
-1,716640
0,755995
4,733944
0,037586
-2,326538
-3,461154
0,119959
0,787018
0,579915
-2,762340
-2,198407
-2,007587
-3,191822
-1,603974
2,345263
1,000319
0,909243
0,918544
2,605551
0,366765
-1,703333
-0,339281
1,089819
1,661805
-2,743726
-0,973530
-0,659845
-2,173840
-1,800265
-3,583868
-0,625324
0,273811
-0,166763
1,631345
1,136823
-0,319045
0,224865
0,692960
3,603474
1,631923
-3,099051
2,419071
-0,396492
1,720077
1,346886
2,604185
2,172695
3,125682
1,828645
0,834140
0,825126
-2,249965
-2,080490
-3,294425
-1,218151
-1,329538
-0,906995
4,300954
4,373512
2,964922
1,865380
3,282323
0,269090
-3,804712
-3,178998
-2,821811
0,581314
0,129786
-0,786777
0,229023
-0,059938
-1,088595
-0,652490
-0,294793
-0,757959
0,974620
3,091747
1,202863
-0,298865
2,510811
2,208430
0,682796
2,596074
2,263306
-1,107885
-1,950269
0,835153
1,167081
-2,109936
-1,523347
3,237377
2,565652
-0,807622
-0,176734
0,772002
-0,279890
-0,700090
1,068344
3,940222
2,100552
1,282748
-1,345472
-2,123079
-2,904980
2,290101
2,787740
-1,047318
-1,586962
-2,416015
1,072326
0,406857
0,636630
2,239074
1,866898
-1,105721
-0,323208
0,566825
-0,056967
0,528632
0,969244
-0,671771
0,093642
0,931205
3,539990
-0,880989
2,085013
1,562413
-0,954430
-1,154679
-2,932735
1,555687
1,647986
-0,829915
-0,765594
1,396495
-1,038762
-1,464741
-0,810019
0,637389
-0,155850
-0,410461
-0,397211
-2,540213
-1,201840
-1,250583
-0,786049
-0,603028
0,516029
-1,925217
-1,096621
-0,396507
-1,197295
-0,608735
-1,747839
-1,669769
1,423040
-0,899169
-1,294710
0,800883
-0,342009
-2,285614
-0,607015
-2,238490
0,425364
2,409719
2,464777
-0,635206
0,058273
0,401608
-1,286405
0,636220
0,569508
-1,279272
0,983036
2,343564
0,164636
-0,474643
0,355505
0,844353
5,186072
4,043438
-0,648025
-2,342061
0,398987
0,104698
-1,992021
0,683957
1,971862
-0,060605
0,203624
-1,430479
1,832659
-0,765948
-0,529260
-0,974019
-1,254489
1,810642
1,131010
-0,161703
-1,520954
1,269271
0,343486
2,038726
1,839404
2,499740
2,789521
0,272034
-0,819185
-2,346749
-1,527542
-0,571910
2,265578
0,006076
0,669549
-0,203221
0,070949
-1,838661
-0,873926
0,934988
-1,115061
-0,400394
-0,441154
2,289708
0,164982
-1,489020
-0,089119
0,540775
-2,194183
-3,422351
-2,744877
-1,255629
-1,491135
0,558234
0,128721
-0,172312
-0,324003
1,582498
2,347025
3,657400
0,959548
0,926109
-2,184397
-1,687340
-2,264603
-3,293866
1,779493
-0,062012
0,654882
-0,095980
0,675415
-0,891348
0,068551
1,808165
0,878028
1,107714
0,394778
0,163098
-0,327551
0,253775
-0,366728
-1,975791
-3,411635
-0,839511
0,101339
0,185809
1,452078
-2,046518
1,868730
-1,745451
-1,050793
-1,813995
-1,704006
-2,030010
-2,690076
-0,589738
1,124584
1,680091
0,434814
1,159610
3,218257
0,682747
0,315617
0,139991
-0,801824
0,496495
1,788675
2,890652
1,112771
1,115640
-0,595438
-0,232040
-3,292037
-1,744407
-3,998215
-1,215154
-0,628353
0,049246
0,193108
2,084420
1,303593
1,671495
1,928858
0,738829
-0,865309
-2,837705
-1,878085
-0,230461
1,405009
-1,023316
-1,880183
-2,365021
-2,486767
1,911592
0,529727
-0,511100
0,464859
1,731874
0,096704
-0,394433
-1,195861
1,186829
0,712480
2,876638
0,341532
-2,099655
-3,912829
-2,115995
0,240824
0,740675
-0,207897
-0,069820
-1,439537
-0,254457
-0,945504
-1,733966
-0,098240
1,280189
-0,269686
0,715365
2,194099
0,940286
0,049143
0,085973
0,213928
-1,999469
-1,813750
-0,375246
1,136335
-0,307315
-2,486278
-1,349899
0,837809
-1,529991
-2,340733
-1,735834
-0,637615
1,435055
2,455741
2,492719
2,390289
1,333337
-0,406581
1,585509
1,547756
-0,823301
-0,108486
0,174645
-0,351412
-1,881320
-0,268941
-0,601635
-0,707728
-0,676127
0,468742
0,324660
0,497433
-0,112823
1,343385
1,104002
0,970580
1,365878
0,088946
-0,524658
-0,450224
0,477798
0,374539
0,430540
0,652747
-0,719507
0,356243
-1,317532
-0,806923
-0,899878
-0,092001
0,746520
1,410837
-1,026279
-0,646672
0,796398
-0,746779
0,480140
-1,053027
0,108609
0,513601
-1,020760
0,290244
-0,628411
-1,195744
0,422811
-1,332596
0,112659
-1,457725
0,010530
-0,309464
-0,457911
0,404488
0,050157
-0,385807
1,320701
1,514688
0,925378
2,061409
1,760977
0,201414
0,258670
0,519825
-0,752785
-1,286707
0,810546
-1,584422
0,352133
0,486924
1,874478
0,618000
0,297313
0,436402
-1,007500
-0,889958
-0,680172
-0,747741
0,638954
1,954862
0,522749
-1,753156
-1,226320
0,620390
0,021069
1,470735
0,323949
0,626912
-0,447156
-1,661680
-2,113749
-0,665578
-0,341468
0,491815
0,113496
0,185008
-1,621508
-0,475953
0,745153
0,157740
-0,197548
-0,374749
-1,144928
-0,385104
0,614784
0,340495
-0,379772
-0,464982
-0,560860
-1,169553
-0,473915
-0,594212
0,015428
0,392858
0,132126
0,667274
0,984925
0,082887
1,028138
0,706547
0,236879
0,410177
-0,479080
-0,702393
0,554491
-0,151923
-0,556052
-0,924941
-0,485891
-1,290442
-0,217638
0,380735
0,425123
-0,255299
0,621573
1,310298
0,937750
0,500930
1,220225
-0,685660
1,075450
-0,323825
-0,877381
-0,644250
0,119624
0,090212
0,087114
-0,774693
-0,547705
0,029973
-0,434624
0,155990
0,082611
-0,232700
0,498941
-0,139399
0,135278
1,130842
0,801879
0,954483
-0,099694
-0,319671
-0,337938
-0,570736
-1,052640
-0,198844
-0,948273
-0,650409
-0,560593
-1,647913
0,739965
-0,196291
-0,157053
-0,047653
0,681050
0,323392
0,234213
0,874062
0,867894
0,045123
-0,124053
0,047786
-0,192710
0,331543
-0,906650
-0,626509
0,203179
0,164376
-0,691099
-1,290390
-0,960269
-1,177973
0,516018
-1,093537
-0,001586
0,436953
1,812523
0,776816
-0,061076
-0,013217
0,380433
-0,817116
-0,228660
-0,261503
-0,655380
-0,714368
-0,998467
-0,434233
-0,697088
-0,833124
-0,844682
-0,855609
0,059138
-0,130781
0,224879
0,080839
0,284413
0,940706
0,577912
0,792096
0,458468
0,155673
0,679205
-1,106661
0,405673
-0,478632
-0,421771
-0,258106
-0,409684
-0,724041
-0,979221
-0,171136
0,733022
1,039659
0,226201
0,274217
0,722756
0,039223
-0,519918
-0,390094
0,690862
0,672927
0,052630
0,127528
-1,114256
-0,548501
-0,590590
-1,154177
-0,778440
-0,401501
0,363612
-0,686157
-0,744657
0,866990
0,206006
0,376040
-0,334148
0,348765
0,568008
0,028558
-0,117861
0,473797
0,814251
-0,471009
-1,044764
0,537590
-1,085673
-0,795449
-1,268141
-1,456443
0,335010
0,357558
0,839320
-0,027122
0,845300
1,164423
0,429215
0,490211
-0,105452
0,689125
-0,221339
-0,558941
-0,296653
0,156509
0,143619
-0,446305
-0,613605
-0,471783
-0,871595
-0,463069
-1,437117
-0,875183
-0,605080
0,507611
0,316340
0,082910
0,636406
0,947771
1,160245
0,945027
0,381998
0,007098
-0,340188
-0,666214
0,804320
0,162573
-0,839123
-0,525286
0,129626
-0,797050
0,397794
-1,315559
0,922364
-0,078949
-0,034976
1,135330
0,134043
-0,696991
0,151149
0,596788
0,121652
0,858690
-0,410275
-0,465748
-1,373458
-0,280600
-0,464888
0,227491
-0,838617
0,352794
-0,288443
-0,578235
0,385492
0,669267
-0,260135
0,809056
0,745348
0,324829
0,422754
1,216618
1,102971
0,465310
0,168411
0,105082
-0,282024
-0,896019
-0,365696
-1,617317
-0,292224
-1,065448
-0,071011
-0,168092
-0,511667
-0,489444
0,298272
-0,755582
0,498731
0,361509
-0,661319
0,261562
0,421024
-0,636331
-0,554703
-1,056076
-0,129304
-0,351819
-0,798220
-0,332916
-0,906212
-0,111368
-0,132117
-0,107739
-1,107649
-0,153481
0,503005
1,005773
0,420145
1,099993
0,390275
0,395599
0,565905
1,041890
0,529309
0,388122
-0,112912
-0,308847
-0,455368
-0,720338
-0,418527
0,355220
-0,310828
0,112823
0,493290
0,282274
0,315013
-0,545763
0,809033
1,452218
0,380514
1,122243
-0,460986
1,016724
0,726770
0,395291
-0,808025
0,345234
-1,147577
-0,193958
-1,050920
-0,698008
-0,098896
-0,287013
-0,865298
0,610384
0,192104
0,547409
0,013635
-0,007949
0,061648
0,891312
0,648413
1,281588
0,171719
-0,659317
-0,730091
-1,009372
-0,315784
-0,548579
-0,772206
-0,168607
-0,141820
-0,546544
-0,556720
1,132350
0,505485
0,581825
0,058448
0,364451
-0,138160
-0,733232
-0,373573
-0,162048
-0,749573
-0,541042
-0,141782
-0,448130
-0,029052
-0,185531
-0,360945
-0,185355
-0,308874
-0,675775
-0,494069
0,549076
0,135401
0,259709
0,644238
0,651336
-0,123256
0,509705
1,441333
0,733801
0,168271
0,295205
-0,137292
-1,834930
-0,625227
-0,279043
-0,095178
-0,833109
0,157612
-0,461221
-0,437181
0,258686
0,682422
0,532324
0,013007
0,588527
0,563702
0,506517
-0,373365
0,013714
-0,508367
-0,491799
0,022022
-0,692298
-0,340926
-0,937377
-0,656455
-0,070002
-0,317888
0,274549
0,371274
0,867835
0,410930
0,703170
1,286190
0,950048
-0,740259
0,497150
1,422183
1,266139
0,320902
-0,641956
-0,803202
-1,001447
0,064905
-0,317998
-0,605429
-0,803394
-0,261033
-0,510263
-0,037353
0,750247
-0,031123
0,842952
0,253715
0,863344
0,704964
0,409445
0,419543
0,412086
-0,346533
0,174144
0,181149
0,883486
-1,393576
-0,697125
-1,618795
-0,370470
-0,438038
-1,454794
0,973749
0,923149
0,546967
1,437502
0,141161
-0,106473
0,182849
0,546314
0,373751
0,305564
-0,535457
-0,154409
-0,677658
0,266281
-0,628953
0,023933
-0,933446
-0,759098
0,449638
0,866458
-0,274400
0,341544
-0,076125
0,335865
0,504797
0,086146
0,664415
1,021196
-0,463604
0,612192
-0,290564
0,030844
-0,643060
0,044514
-0,572011
-0,298110
0,009053
-0,745574
-0,534745
-0,326074
-0,438739
0,537561
0,918977
1,173519
2,080716
1,084132
0,277702
0,091640
1,194316
0,146285
-0,374653
-1,332964
0,533257
-0,121306
-0,446617
-1,012549
-1,134720
0,045551
-0,133759
-0,365302
-0,439551
0,413615
0,176308
1,622664
-0,137893
0,889940
0,501855
0,234407
1,685254
-0,004490
-0,047672
0,047520
0,612433
-0,691540
-0,735908
-0,004571
-0,546400
0,822889
-0,417090
-0,125589
0,213851
0,960826
-0,451475
-0,209321
-0,207809
0,596322
0,889893
1,590759
1,448754
0,159138
0,173717
-0,613856
0,424274
-0,475132
-0,333264
-0,461389
0,926601
-0,602293
-0,410550
-0,843076
-0,858036
0,641393
0,901124
1,458443
0,246168
0,398692
-0,005643
0,460742
-0,086995
-0,412961
-0,229904
-0,051177
0,052451
0,180715
-0,172101
-0,793165
-1,596563
-0,358565
-0,416412
-0,179590
-0,630014
0,250454
0,380080
0,739897
0,507012
0,216094
0,727537
0,616527
-0,006993
-0,785652
-0,356031
-0,977797
-0,810259
-0,758982
-0,413638
-0,819771
0,388659
-0,358522
-0,696021
0,493260
-0,395273
-0,545117
-0,657998
0,903489
1,261217
0,027811
0,685689
-0,339726
-0,686152
0,235254
0,359809
0,210627
-0,170538
-0,837000
-0,714090
-0,319823
0,233039
-0,182181
-0,751630
-0,983474
0,970480
0,041290
-0,379722
-0,072331
0,582249
0,632566
0,269786
0,845711
0,365398
-0,411547
0,592617
-0,653425
-0,144627
-0,599345
0,198064
-1,105446
0,597660
-0,739853
-0,058119
0,532989
-0,538345
0,692076
0,427135
-0,045200
0,562383
0,745456
0,296139
0,856488
-0,017771
-0,038262
-0,323299
-0,335720
-0,288605
0,136504
-0,858450
-1,272920
-1,211695
-0,724075
-0,314746
0,007838
-0,344902
0,515641
0,605973
0,902707
0,939818
0,559397
1,145074
0,198566
0,305190
0,233637
-0,068628
0,060875
-0,811842
-0,375279
-0,945808
-1,106177
-0,065387
-0,386381
-0,224153
-0,415280
-0,620575
0,110101
0,454190
0,155272
0,464141
1,072388
0,427076
-0,469291
0,135084
-0,066983
-1,103693
0,293980
-0,636576
-1,278918
-0,573695
-0,519722
-0,405014
-0,112407
-0,616477
-0,401238
0,095153
0,779148
0,468591
-0,426329
0,213320
0,461020
0,389064
1,104444
-0,183257
0,064246
-0,444513
0,038048
-0,915827
-0,599564
-0,714377
-0,532055
-0,318870
-0,548875
-1,223652
-0,421771
0,256772
0,332577
-0,558924
-0,133161
0,171748
-0,081786
0,385633
0,555839
-0,224513
0,284561
0,944840
-0,524114
-0,506455
-0,265201
-1,153301
-0,567217
-0,073746
-0,590864
-0,931344
0,284819
-0,643670
-0,311679
0,400612
-0,499955
0,795690
0,152462
0,195214
-0,132622
1,210003
-0,023902
0,072504
0,931180
-0,204367
-0,002637
-0,182164
-0,124787
-1,059030
-0,405540
-0,812583
-0,199120
-0,378913
0,545307
0,384432
-0,320337
0,989656
0,126710
1,112661
-0,167465
-0,563378
0,585447
-0,054797
-0,749520
0,521619
-0,308851
0,154324
-0,660858
-1,374101
-0,936082
-0,506494
-0,700376
-0,247350
-0,504518
-0,050298
0,176445
0,700633
0,291770
0,107034
0,742695
0,243850
-0,442343
0,654056
-0,371168
-0,283162
0,684047
-1,501355
0,087658
0,014682
-0,646695
-0,296493
-0,723812
-0,048772
-0,528282
-0,133478
1,221765
1,310247
0,377947
0,652967
0,245958
0,151194
0,424278
0,104291
0,240805
-0,299110
-0,902771
-0,138700
-0,574067
-0,415342
-0,177402
-0,675423
-1,015369
0,268425
-0,351278
-0,058017
1,108041
0,849756
-0,098782
0,539798
-0,692192
-0,271074
-0,826205
-0,490627
0,270973
-0,659838
-0,671649
-0,631354
-0,415731
0,001436
-0,668150
-0,621166
-0,510216
0,446288
0,492318
0,632126
0,388502
0,921620
0,399959
0,232071
0,077488
-0,118047
0,849832
-0,199872
-0,156957
-0,070420
0,117899
-0,614846
-0,426949
-0,935843
-0,641523
-0,475116
0,006714
-1,236179
0,312819
0,876929
0,996008
0,324103
1,042646
-0,809631
0,175451
0,605030
0,605839
0,369543
0,309666
-0,433500
-0,039605
-0,698081
-0,234583
-1,043372
-0,061712
-1,723202
-0,494058
0,015001
0,201708
-0,356785
-0,541719
-0,036327
0,883329
1,023673
0,530341
1,019373
-0,088844
0,788255
-0,329162
-0,341774
-0,821690
-0,640380
-0,099702
-0,160460
-1,411013
-0,034526
0,041113
0,527224
0,528470
0,579928
0,047175
0,318001
-0,096813
0,672488
-0,295155
-0,470267
0,347963
-0,370435
-0,496040
-0,300760
0,260584
-0,709877
-0,020316
-0,130995
-0,782564
-0,443773
-0,684380
0,420024
0,612262
0,296036
0,061290
0,542318
0,507670
0,330464
0,270019
0,415845
0,547465
0,598816
-0,057989
-0,048946
0,110703
-0,921798
0,175645
-0,469809
-0,118553
-0,160867
0,389751
0,120046
-0,162350
0,816433
0,233394
0,583700
-0,192825
1,496323
0,589840
-0,476514
1,267078
-0,233650
0,022268
0,219280
-1,440553
0,348966
-0,713078
-0,364976
-0,474427
-0,631041
-0,097707
-0,491541
0,952826
0,769131
0,427984
0,540309
0,365702
0,326415
0,417309
0,424547
1,158350
-0,482210
-0,087893
-0,968095
0,049577
-0,304981
-0,065342
-0,855508
-0,330081
0,101486
-0,257010
0,765644
0,068497
0,978655
1,460503
0,129339
0,550471
0,739286
0,269599
1,773737
-0,098157
0,205592
-0,262848
-0,745617
-0,711127
-0,122858
-0,574075
-0,272146
-0,250970
-0,768497
0,194935
0,938707
-0,464375
0,242679
0,528952
0,567156
0,158466
-0,121023
0,013200
-0,411428
-0,315491
-0,087328
-0,267076
-0,682045
0,015321
-0,583594
0,072898
-0,039344
-0,241338
-0,065965
0,062897
0,362978
0,424197
0,967748
0,495952
0,336973
0,182472
-0,479141
0,266761
-0,255775
-0,239986
-0,509535
-0,927647
-0,011427
0,476016
-0,324295
-0,668063
-1,063056
-0,326683
0,462680
-0,536578
-0,141152
1,381764
1,117291
0,012067
0,557549
0,256577
1,194651
0,700900
0,007246
0,357328
-0,146744
-0,261866
-0,751305
-0,517780
-0,416571
-0,498785
-0,228594
-0,853395
-0,793953
-0,182615
0,542736
0,154580
0,776285
0,792497
0,205619
0,192835
0,675120
0,379054
0,538611
0,292592
0,222640
0,038821
-1,277209
-0,510467
-0,164197
-0,721131
0,075540
-0,391335
0,095290
0,092456
0,018030
0,600010
0,603802
0,395164
-0,951039
0,278986
1,355883
0,928988
0,207548
0,359142
-0,273634
-0,192965
-0,666449
-0,448805
-1,467961
-0,527252
-0,769046
0,419234
-0,387323
-0,121464
-0,804774
-0,264669
0,090340
-0,393111
-0,079020
0,662000
0,807770
0,736762
-0,225681
0,242299
0,792995
0,001714
-0,211037
-0,909817
-1,538495
-0,179197
-1,397098
-0,685160
0,293504
0,949376
0,196720
-0,098992
0,958509
0,283882
0,122897
0,408300
1,054946
1,023160
-0,559509
0,117816
-0,373550
-0,214498
-0,702305
-0,515724
-0,117975
-1,513139
0,344925
-0,672746
-0,792510
-0,420511
0,480595
0,522351
0,076876
0,233937
0,166274
0,673533
0,067078
0,882986
0,461970
0,739215
0,476229
0,034846
-0,440003
-0,217838
-1,414830
0,822227
-0,271892
-0,273732
-0,746399
-0,472492
0,341286
0,140698
0,727994
-0,337278
0,434526
1,259755
0,641210
0,283134
0,330174
0,055101
0,229690
0,337190
0,586511
-0,423496
-1,602182
-1,299096
-1,038097
-1,400533
0,265964
0,141870
0,312792
0,760641
1,860129
0,253070
1,559077
0,911435
0,858675
1,957117
-0,300826
-0,514429
0,646867
1,059148
0,321347
-0,149620
-0,153187
-0,411955
-0,520994
0,615220
-1,119162
1,228488
1,006801
0,616797
0,809410
0,892263
1,486777
1,326478
1,319047
0,586315
-1,801819
-0,340800
0,474544
-0,709304
0,491850
-1,179419
-1,726219
-0,195710
-0,530961
0,116606
0,724105
1,516792
0,097061
-1,143720
-0,011948
0,816471
2,079198
-0,116409
-1,653310
-1,094769
0,248913
0,366402
0,782812
0,604218
-0,086543
0,036679
-0,098880
-2,342243
1,123293
1,292457
2,132747
0,418867
-1,310263
0,866609
0,394732
-0,011929
2,423248
1,801498
2,516912
0,649045
-0,138283
1,093280
-0,300274
-0,081974
-0,708580
-0,669308
-1,702568
0,027787
-0,629936
-1,337196
-1,068174
-1,200227
-1,123160
0,704620
0,505367
0,187073
0,571605
-0,465886
1,145604
1,156497
0,937913
1,604908
0,759521
0,737444
1,130994
-0,389390
0,136179
-1,536091
-0,774127
-1,791311
-1,457046
-0,330046
-1,533480
-1,488198
-0,758066
1,911183
1,121674
0,551737
0,941563
0,301021
0,113935
-0,665040
-0,125808
0,113873
-0,346937
2,039730
1,412909
-1,017299
-1,291842
-0,895323
-0,665568
-1,267610
-0,488255
-0,680835
0,255126
0,336369
0,711116
0,224631
1,401912
1,598944
0,716634
-0,207674
0,206895
-0,404981
-0,551473
0,876571
1,188711
-0,704714
-0,053554
-0,960633
-0,852451
0,382036
2,454626
-1,065742
0,471955
0,683052
0,457622
0,633857
-0,201122
-0,447773
0,127423
-1,102792
1,454464
1,381560
1,689576
-0,970385
0,539703
-1,317094
-2,569205
-1,374908
-1,505195
0,317276
-1,029688
1,409573
1,822940
0,974540
0,806176
1,269966
-0,257470
0,589574
3,877550
1,116479
-0,169638
-0,244255
-0,242710
-0,246343
0,283055
-1,365316
-2,325150
-2,162500
0,807714
-1,037367
-1,799209
0,602071
1,303763
0,903550
0,421870
0,804808
0,896148
-1,004815
-1,274441
-0,369514
0,366727
-0,446645
-0,256796
-1,076082
0,095662
0,397921
1,181502
-0,507121
-0,804510
-1,546627
0,773889
1,454563
-0,129986
-0,429988
0,382286
0,725172
-1,003218
1,981010
1,011699
0,506723
0,099709
-0,941807
-2,765758
-2,697636
-2,273124
-1,115222
-0,715592
-0,373124
0,569701
3,568780
3,087595
0,457266
-1,448702
0,004253
0,480778
-0,096404
-1,155231
0,885767
0,511675
1,320602
-1,190671
-1,823441
-0,841492
-0,996474
-0,014133
-1,014875
-2,387461
-0,682949
1,739985
-0,111880
-2,213594
0,195535
2,466746
-1,200681
0,210390
-1,088597
0,006974
-0,141591
3,857382
0,647121
1,924060
3,921661
0,125423
-1,701908
-1,708916
0,434985
0,575294
-0,509569
-2,696439
-1,874447
-0,143257
-0,386884
-0,431268
0,326749
1,835896
0,484227
-0,032807
0,394528
-1,410978
-0,057945
-0,723525
-1,062534
-1,695813
-0,372714
0,692635
0,741706
-1,095610
-2,586484
0,590562
-0,509616
0,718172
0,222443
1,270782
0,096750
-1,212738
-1,083115
0,911240
1,699179
2,634622
2,552991
1,435599
-1,322822
0,300186
-1,855299
-1,831722
-2,172267
-0,265167
-0,828874
-1,726486
-2,668415
0,061365
0,598892
-1,258705
0,474592
1,396644
3,629163
-1,528696
1,314575
-0,960210
-0,429993
3,013182
1,984361
0,496259
0,358294
-1,025301
-0,009981
3,473343
0,393527
-1,001468
-0,397619
0,418572
2,046143
1,374567
-0,723603
-0,378237
-0,124702
-0,253188
-0,142321
-0,408307
-1,343420
-1,752408
-0,250062
-0,654678
-3,563856
-2,723494
-0,248217
0,680795
1,654240
-0,731658
-1,935413
1,275256
0,507717
-0,055477
2,769292
1,659692
-0,331537
4,370903
2,358272
-0,143835
-4,077510
-2,099861
-1,431332
-4,468546
0,142873
0,859173
0,535459
0,926521
1,160438
1,653860
-1,698632
-1,645023
-1,002549
1,210264
0,674558
0,136303
1,971580
3,847344
4,260752
0,018124
1,272963
3,470148
0,578625
-2,171580
-2,280165
-2,472371
-1,817234
-1,111229
-1,656557
-0,356453
2,702277
1,132008
-1,135428
-0,398879
0,842827
-2,613252
1,089904
0,703441
-0,103596
0,065556
1,055689
-1,007496
-4,148689
-0,888475
-1,429062
-0,084017
-0,964526
-3,324340
-1,548355
-0,223094
1,107739
-1,014560
-1,323701
1,518118
2,943472
3,493648
2,884438
0,652712
0,032599
-0,401404
-0,370650
3,160448
-0,602636
0,543943
0,717020
-0,071762
-0,552720
-2,064153
-2,042709
-3,295346
-0,687242
-0,061846
5,336221
1,764244
1,454177
2,764499
-0,660085
-2,865523
0,020140
-1,904316
-0,249560
-0,995958
0,007964
-4,540461
-0,546401
0,774490
0,437810
-0,281712
1,306678
2,004028
-1,331650
-2,181968
0,031173
-0,275252
-2,738706
-1,514169
-0,904945
0,492715
0,741607
-0,384509
0,094959
1,022303
0,082562
-0,817050
0,482863
2,913553
-0,526996
1,627119
-1,228665
-1,197002
-1,290621
-1,140650
-1,800591
2,025171
4,068295
0,135695
0,442950
3,432945
2,139336
0,031033
-3,678819
1,593206
1,290916
-0,032530
-0,331707
2,253451
-0,041653
-1,217172
-2,814097
-1,491511
-0,923390
0,574946
1,410942
-1,410858
-0,608959
1,616372
-1,137387
-3,393634
0,069540
2,526946
-2,726355
-2,493294
-1,823023
-0,480399
1,588339
1,984248
1,762466
1,743543
0,805028
-2,066842
-3,452911
-0,763313
1,573300
2,938593
0,856001
3,626015
1,083896
-1,792318
-2,240783
-2,517091
-1,092792
0,730846
-4,601432
-1,596445
1,686641
-3,156944
-3,834296
-0,620406
-0,817076
0,600969
1,748495
2,683582
1,750398
3,104134
1,546229
1,727580
1,605735
0,774494
0,504768
2,397287
0,048105
-1,516111
-0,260904
1,709714
-1,210685
-1,939428
-3,977440
-3,071820
1,766620
2,032566
1,739785
5,767508
2,710617
-0,611046
-0,569099
-1,629169
0,121734
2,278877
-0,432602
0,660332
-2,306223
-1,810931
-2,016629
0,143353
1,002930
-1,404852
-0,077126
-2,063808
-1,741245
-2,631271
-0,926237
0,984743
-0,220288
3,072804
-1,587844
2,007152
-2,822168
-2,276000
0,772636
0,875965
0,925717
-1,393508
-0,857939
-1,496661
-4,587550
-1,254294
-0,192510
3,598689
3,640599
1,149281
-1,643605
-0,693016
1,387742
1,188533
-3,708856
-0,976413
-1,192253
-0,910296
-1,500845
-2,752924
-1,234067
0,855821
1,153462
1,802818
-0,742084
1,791697
-2,660838
-1,752132
-1,619556
1,475925
1,185009
0,369184
0,439768
-0,252501
-0,374503
2,602653
0,126961
-1,742986
-0,987110
1,109106
1,203356
0,961223
-3,371757
-3,093723
-3,703975
0,183466
-0,778299
0,976335
0,210627
0,465544
2,662079
-0,674886
-1,628340
-3,882489
-2,362579
0,439643
-1,083388
-3,170326
3,689381
2,706239
2,466219
-0,288168
1,412874
-0,885695
-3,309727
-3,022500
0,132954
1,108884
3,429164
0,477016
-1,712158
-1,782501
1,048933
1,722708
-1,071734
3,204752
0,459377
4,130005
-0,797574
-1,647651
0,855205
-0,037823
-2,558466
-1,381128
1,623707
-1,582455
-0,085418
0,345459
-0,887623
-1,513863
-2,307252
-1,235099
0,346158
-1,637117
-1,039156
-1,507037
-1,058796
-0,641414
-1,263265
-0,944254
1,372071
-0,100772
-2,272427
2,876237
3,163274
-1,672147
-3,457962
1,364580
0,639994
2,188989
4,422714
-0,717089
0,242106
-2,530451
-3,577440
0,344435
-0,112810
-0,763450
-2,423206
3,587202
1,113158
-1,171236
-1,803645
-0,040753
0,553980
0,867163
2,575713
3,033675
2,586010
1,434798
1,218577
-0,605133
-0,349174
-1,376384
-0,275658
-0,939559
1,442335
1,417515
2,200545
0,226243
-0,856105
-0,068664
0,451414
1,267230
-0,805321
-0,298545
1,318820
-0,546224
-0,767112
0,141178
1,410753
1,890662
0,342060
0,055752
1,224526
0,690860
0,423577
-2,079384
-1,522883
0,711532
0,457278
3,174810
2,775194
2,372657
-0,167876
-1,787281
0,317534
-0,311601
-1,820142
-0,618481
1,179972
1,396938
0,667261
-2,289958
-1,659680
0,813399
1,986344
1,245820
-1,242124
-0,897826
-1,511946
-2,734791
0,226048
1,550923
2,059720
1,601814
-1,180778
-1,740493
-2,102740
0,644595
4,522824
2,083916
-0,392944
-0,479624
-1,331235
3,373330
-2,022887
-0,500414
2,101975
-1,836783
-0,285563
1,518397
1,151888
0,575447
-0,686173
0,845052
1,759024
1,685711
-1,634188
-0,675265
-0,514319
-1,860753
-1,184651
-1,342897
-1,088268
1,241033
1,005615
-1,336867
1,980752
0,878105
2,519144
0,129264
0,550437
3,092597
0,653588
-0,747078
0,759639
-0,932552
2,536198
0,479957
-0,230534
0,496931
0,637510
-0,043491
-0,046564
0,490537
0,401722
-1,150047
-1,143548
0,613385
-0,068177
0,689750
1,789162
0,796361
1,285587
-1,366631
0,318822
-1,204971
-1,465611
0,655696
-1,569485
-1,682594
-0,231875
-1,074411
1,263858
1,634772
0,327140
0,809540
-0,733381
-1,310610
-1,174314
0,430245
-0,948951
0,578803
0,806332
-1,557394
0,079559
-1,135584
-1,287120
1,798987
1,286368
-0,081146
0,639533
1,504898
0,597089
0,230258
0,461827
1,175234
0,603071
1,029239
0,017382
0,270907
0,956077
-0,529268
0,322233
-0,230588
-0,369713
0,687183
2,803722
-1,114235
-0,159379
-0,763144
-1,252533
0,078276
-1,062075
-0,365760
0,559051
2,395717
0,923742
0,078855
0,955730
1,614096
-0,853394
-0,682738
-0,984799
0,364412
-0,817672
-1,003605
-0,123185
-1,869756
-1,328903
-1,664971
0,484230
1,223352
0,869515
0,969742
1,477947
0,612799
0,681084
0,380522
-0,616461
0,243941
-1,165276
-2,111037
0,403079
0,993750
-0,767642
1,300029
0,840978
-1,214010
0,653361
-1,160477
0,594291
1,216265
1,954776
0,574326
-0,287192
-0,398616
0,153529
1,655502
0,461377
-0,253759
0,181915
0,030133
0,003113
-0,939521
-1,351447
-0,192283
0,332039
-0,806528
-0,517125
0,619963
2,069329
1,162884
0,275944
0,536090
1,655635
0,291410
-0,103215
-0,696622
-1,391539
-0,223425
-0,412902
-0,182551
-0,791203
1,026598
0,704192
-0,438826
-1,202185
-1,229760
-0,933298
0,469790
-0,743386
-0,375594
-1,401838
-0,053096
0,292661
0,262703
0,578646
1,211564
1,621233
0,383898
-0,048368
0,137388
0,891179
-0,721052
-1,789001
-0,599304
0,054358
-0,453432
0,919030
1,106768
2,033075
0,591171
0,744136
1,244353
0,927536
-0,366270
-0,147343
-0,284920
0,752985
-1,850588
-0,221222
0,502493
-0,159945
-0,004418
-0,683296
-0,753305
-1,157542
0,255051
0,455377
0,121777
0,742305
-0,349217
0,752283
0,321066
0,844253
-0,428194
0,345514
0,707037
0,798191
0,077842
-0,321055
-0,746642
-0,283003
-0,371296
-0,934914
0,174737
-0,908738
0,856683
0,054081
0,195161
0,436294
0,311045
-0,334733
0,200415
0,697560
0,584102
0,477245
0,252314
1,400964
0,372840
-0,104368
-0,677323
-0,772933
-0,266163
0,131684
-0,903817
-1,019008
0,507841
-1,066784
0,047426
-0,283719
0,808074
0,760652
0,756144
0,261778
0,680080
0,275374
0,214425
-0,490076
0,811183
-0,494965
0,026722
0,161719
-1,164679
0,232959
-1,034814
-0,274284
0,031713
-0,565693
-0,003814
0,052858
0,015903
0,819941
0,735674
0,603845
-0,277361
0,099851
-0,656039
-0,222898
0,263403
0,608848
-0,054889
-0,406500
-0,455737
-1,066659
-0,533427
-1,126401
-0,642350
-0,503819
-0,492870
-0,086587
-0,112006
0,245317
0,291857
0,589650
0,753396
1,437461
0,164332
0,187324
0,251975
-0,202700
-0,111040
0,047555
-0,161236
0,168357
-0,703171
-0,502059
0,269772
0,931341
1,296704
-0,169331
0,171030
0,426435
0,854999
0,652848
0,340395
1,089808
0,093332
0,551959
-0,791389
0,458763
-1,152018
-0,422675
-0,842971
-0,272536
-0,614017
-0,370296
0,043550
-0,409734
0,301420
-0,333822
0,833580
0,208674
1,029225
0,358324
0,558699
0,273029
0,256178
0,335510
-0,291539
-0,380944
-1,137120
-0,311928
0,357501
-0,274165
0,110322
-1,438204
-0,040048
0,404622
0,607287
0,109074
0,394939
0,340821
0,459617
0,334987
0,177086
0,533399
-1,002270
0,449947
0,989789
0,485047
-0,891551
-0,686628
-0,040566
-0,455623
-0,005443
-0,488467
-0,818017
0,421024
-0,135730
-0,703351
0,692535
1,853451
0,478804
0,882461
1,156454
-0,142326
0,099149
-0,543469
1,045598
-0,627334
-0,282413
-0,976513
-0,768477
-0,520188
0,144190
-0,666983
-0,205092
-0,331883
0,554253
0,615218
-1,018321
0,883137
0,174313
-0,063434
0,884698
1,003047
1,231967
-0,038969
0,078384
-0,292345
-0,317653
-0,467291
-1,113646
0,798992
0,205873
-0,478314
-0,049512
0,500287
0,926505
0,102482
0,769957
-0,483437
0,369061
1,033054
1,098413
0,133764
-0,384756
0,500199
-0,472181
-0,875991
-0,077222
-0,358557
-0,776000
0,439069
-0,061105
-0,713790
-0,370844
-0,153694
0,163383
0,486411
0,318294
0,644025
0,825808
0,234445
0,549670
0,761015
1,212659
1,728654
0,039678
-0,506038
-1,122812
-0,309795
-1,038791
-0,633107
-1,101715
-0,733817
-0,523685
-0,041183
0,605755
1,111447
-0,456868
0,248749
1,257761
-0,549247
0,341577
0,269967
0,780962
0,119775
-0,466416
0,016654
-1,162328
-0,271611
-0,264887
-1,001727
0,083400
0,231475
0,015087
-0,247976
0,180327
-0,105824
0,666554
0,137356
0,105471
0,160536
1,002284
0,681038
0,323034
0,195132
0,454490
0,407888
-0,362996
-0,137395
-1,451649
-0,414844
0,343320
-0,780942
-0,369902
-0,343547
-0,208925
-0,106082
0,543773
0,990427
-0,109930
0,983032
0,148095
1,383185
0,953917
0,233449
0,387592
-0,290961
-0,149726
-0,408269
-0,070369
-1,148236
0,157614
0,051109
0,413286
0,275293
-0,873990
0,103232
0,056347
0,206341
1,131552
-0,191495
-0,277835
1,042571
0,099940
0,496018
-0,032135
-0,754973
-0,651264
-0,442941
-0,390751
0,141255
-1,086290
-1,553054
0,014455
-0,073515
-0,035519
0,109228
0,186426
1,406598
0,315078
0,558987
0,905741
0,457686
0,513871
0,333188
-0,521289
0,314966
-0,108714
0,755448
-0,355437
-0,413435
-0,327593
-0,612912
-0,366106
0,236307
-0,281671
0,248735
1,173268
0,418772
0,526684
-0,108886
0,751413
0,638327
0,283706
0,495124
1,643530
-0,059949
-0,423644
-0,891010
-1,259899
-0,656340
-0,395672
-0,885091
0,182492
0,002945
0,452367
0,573340
0,539307
1,068632
-0,002406
0,569905
0,995002
0,299801
0,660507
-0,173799
-0,828562
-0,109605
0,146485
-0,697193
-1,336553
-0,691141
-0,837977
-0,274293
-1,170668
0,447758
0,488805
-0,811118
1,067159
0,986263
0,397154
-0,430443
1,190565
-0,074837
0,955857
0,938685
0,158668
-0,308036
0,252918
-1,440155
-0,368599
-0,531440
-0,213635
-0,497815
-0,656562
-0,161204
0,689543
0,095623
0,300190
0,805334
0,239728
1,045776
0,694018
0,044872
-0,055850
-0,163833
0,467112
-0,358615
-0,300244
-0,598863
-0,754210
-0,923121
-1,292811
-0,166110
-0,043266
-0,461080
-0,255860
0,442543
-0,384636
0,010330
0,299833
-0,078944
0,401807
0,342522
0,562436
1,068704
-0,919699
0,912965
-0,530390
-1,520963
-0,100658
-1,973323
-0,225537
-0,432224
0,945007
-0,306173
0,727193
0,969589
0,829888
0,899370
1,146708
1,022744
0,052476
0,531184
0,231535
0,154147
0,728794
0,399003
-0,260063
1,149613
-0,030612
-0,326672
-0,911488
-1,150037
-0,451651
0,016431
0,447962
-0,552922
-0,160258
0,064145
0,935630
0,113584
0,782626
0,614545
0,661787
1,137169
-0,190260
-0,576644
0,323436
-0,530730
-0,275304
-0,283825
0,280621
-0,961242
-0,466839
-0,394553
0,404565
0,009545
-0,413393
0,973229
0,776084
1,018017
0,162939
-0,216517
-0,602339
0,461894
-0,347093
0,020908
0,080578
-0,267938
-0,653246
0,747297
-0,041189
-0,595417
0,196842
-0,649035
-0,120681
0,356792
0,005210
0,365864
1,019730
1,540149
0,289251
1,130438
1,435392
0,555663
0,138580
0,071368
-0,132049
-0,483984
-1,250832
-0,717756
-0,070791
0,127359
-0,075243
-0,235064
-0,528983
0,961021
0,903676
0,682376
0,051596
0,905787
0,764029
0,552044
-0,542396
0,293973
0,025838
-0,670506
-0,324878
0,055205
-0,450899
-0,970905
-1,364177
0,096357
-0,798739
0,426438
0,331712
-0,563970
1,194989
1,085615
-0,270805
1,370245
0,494977
0,313274
0,808074
0,255166
-1,426807
-0,310245
-0,842240
-0,238292
-0,575330
-0,648773
-0,306556
-0,182628
-0,762780
-0,300787
0,137431
0,464825
0,224127
0,796592
-0,193874
0,053497
0,174290
1,845910
-0,152942
0,142672
-0,160738
-0,402318
0,772218
0,025535
-0,766898
0,043223
-0,208647
-0,836546
-0,719258
-0,368257
0,037322
0,228307
0,630341
0,519790
0,616759
0,998217
0,131295
0,963134
0,294804
-0,072184
-1,040182
0,014843
-1,239803
-0,627157
-0,222595
-0,382638
-0,578383
0,512453
-0,415124
0,144436
0,312864
1,278538
-0,632625
1,044478
0,350139
0,807994
-0,524108
0,779526
0,396804
0,559334
-0,294151
-0,742582
-0,045013
-0,580096
-0,119281
-0,930388
-0,159686
-0,898084
-0,482347
-0,005396
-0,349174
-0,559163
0,227423
0,958664
1,428047
0,950038
0,599204
0,366972
0,227126
0,807102
0,184700
0,175588
0,152222
-0,296998
-0,658569
0,307216
0,251674
1,001335
-1,163024
0,206510
-0,308864
0,024394
0,448779
0,268420
-0,214327
0,134612
0,776730
0,750026
-0,469586
-0,332652
0,204279
0,171368
-0,506424
-0,621889
-0,339864
0,159495
0,537665
0,276297
-0,992184
0,125413
-0,055332
1,235571
0,179392
0,406583
0,915597
-0,140968
0,147482
0,599863
0,073548
-0,205865
0,073331
-0,214584
0,530112
-0,381354
-1,163553
0,157538
-1,079288
-0,152300
-0,773873
0,290755
-0,170214
-0,444698
0,654223
0,436701
1,341540
0,672713
1,392166
0,720511
0,255650
1,240573
-0,361129
-0,821633
-0,998670
-0,427508
-1,963241
-0,633259
-0,451919
-0,292826
-0,337948
-0,880105
0,759890
0,259152
0,828162
0,781729
1,522534
1,118231
-0,283498
-0,150928
-0,018333
0,237168
-0,310629
-0,953005
-0,248938
-0,046267
-0,528686
-0,063819
-0,485626
-0,116292
-0,073996
-0,140987
0,174680
-0,329249
-0,014856
1,111587
0,126941
0,362787
-0,038579
0,041034
0,535088
0,180634
-0,550293
0,573217
-1,040532
0,146398
-1,149595
0,087063
-0,543568
-0,626418
-0,638690
-0,269177
-0,256680
0,693875
0,677721
-0,151714
-0,208858
-0,257311
0,558599
0,179419
-0,135775
0,855198
0,086369
-0,373626
0,356752
0,256688
0,274434
-0,705408
-0,422058
0,083009
-0,835039
-1,012845
0,076578
0,620706
0,981228
0,700646
0,210306
0,909015
0,502231
0,557701
0,214137
-0,133413
0,052935
-0,828382
-0,496998
-0,493348
-0,445743
-1,369270
-0,951470
-0,291048
0,346309
-0,144599
-0,824160
0,595595
-0,430657
1,284940
1,443981
0,977206
0,691780
-0,495318
0,169867
-0,533314
-0,737062
-0,190948
0,260659
0,153619
-0,838403
-0,651910
-0,220995
-1,001311
-1,551421
0,258841
0,054569
0,908940
-0,049408
0,339107
0,198021
1,010708
0,723306
0,896580
0,604740
0,348810
1,501228
-0,455162
0,353146
-0,853978
-0,612718
-0,838361
0,285908
-0,913981
-0,976068
-0,884906
-1,160497
-0,151757
0,119471
1,455340
-0,073977
0,995866
-0,168550
0,313639
0,663296
0,291426
-0,291987
0,338299
0,197524
-0,527888
0,121797
-0,964421
-0,807132
-0,528879
-1,063444
-0,841641
0,370590
0,456940
-0,043405
-0,796232
1,356206
0,083126
0,495707
0,306570
0,800218
0,166939
-0,272121
0,912188
-0,521500
-0,656501
-1,208823
0,265248
-0,370480
-0,694890
-0,325825
-0,307084
-0,691029
0,201214
-0,900674
0,242345
0,497827
-0,271218
1,025269
1,119694
1,152240
0,702099
0,395348
0,250932
0,367745
-0,595503
0,062548
-0,869166
-0,217488
-0,076542
-0,402303
-0,400672
-0,060638
-0,423069
0,296675
0,484426
0,420136
0,261050
0,925432
0,525677
-0,064078
-0,274408
-0,652381
-0,226636
0,345935
-0,845815
-0,887078
-0,569967
-0,682667
-0,489120
-0,018260
-1,111555
-0,587005
-0,142553
0,163408
0,802257
0,657632
0,341684
0,390388
0,700226
1,144603
-0,664322
-0,343688
-0,184567
-0,062451
-0,266399
0,147899
-1,290687
-0,093027
0,535967
-0,771015
-0,398042
-0,739062
0,888971
0,107674
-0,091732
0,036843
0,203073
0,566282
0,501796
0,527329
0,122397
0,089309
-0,376065
-0,328653
-0,291076
-0,899053
-0,849487
-0,463110
0,048631
-0,817607
0,365462
-0,191630
-0,094414
0,883574
0,221280
0,326687
0,736813
0,284926
0,501742
0,720205
0,180629
-0,619451
0,177239
-0,106521
-0,395007
-0,879577
-0,883268
-0,231387
-0,404710
-0,521145
-0,910491
-0,125891
0,157084
-0,119323
0,085297
1,238302
2,124463
-0,260315
0,059933
0,166923
-0,122686
-0,372586
-0,671569
0,476784
-0,302921
-1,756014
-0,073836
0,151757
-0,084535
-0,529989
0,037350
0,326601
0,919314
1,543106
0,485469
0,655723
0,656939
1,140184
0,361497
-0,093203
0,494985
-0,695076
0,373208
0,487070
-0,471008
-1,029774
-0,481238
-0,584512
-0,064819
-0,681395
-0,160292
-0,163658
0,817960
-0,184502
0,614744
-0,340527
0,027529
0,449684
-0,454768
-0,405185
0,214522
0,532513
0,963417
-0,935475
-1,430647
0,211360
-0,403877
0,008095
-0,801226
0,606074
-0,881424
-0,325003
-0,410492
0,544834
-0,395238
0,832091
0,464838
0,152934
0,410135
0,289455
0,006748
0,338432
-0,435191
0,087670
0,339986
-0,734257
-0,340659
-0,687211
-0,281536
-0,141071
-0,473338
-0,298638
0,202030
0,812453
-0,130969
0,682873
1,015364
-0,056089
1,400874
0,216064
-0,277852
0,910484
0,052188
0,967697
-0,444434
-0,290843
-0,693127
-1,011388
-0,086710
-0,341755
-0,177791
1,335557
0,748780
0,424935
0,471171
0,102538
-0,022964
0,750955
0,759990
-0,196500
-0,263694
-0,309398
0,533034
-0,187055
-1,587651
-0,005559
-0,044779
-0,301650
0,021105
-0,710255
0,271433
0,431346
-0,155313
-0,351895
0,518884
0,407401
0,626315
0,908812
0,799827
0,435618
-0,547168
-0,491962
-0,334399
0,282870
0,105999
-1,164559
0,293718
-0,579156
-0,092671
-0,658048
-0,663903
0,534712
-0,476662
0,604707
0,762778
0,961962
-0,222152
0,725534
0,320296
0,385720
-0,578133
-0,550677
-0,793956
0,191807
0,096153
-0,897273
-0,277199
-0,442130
0,117468
-1,036884
0,510793
0,035616
0,142214
-0,012934
0,395564
-0,088670
1,239699
0,789342
0,455674
0,521332
0,264073
0,121461
-0,192239
-0,172034
-0,603044
-0,217005
-0,912571
-0,566828
-0,517169
0,022198
-0,105234
-0,996832
0,352468
0,971864
0,358726
0,512764
0,688148
0,478030
0,021622
0,303756
0,299487
0,446967
-0,551239
-0,098826
-0,533901
-0,569364
-0,286329
-0,504063
-0,631885
-0,778294
0,095799
0,055403
-0,506264
0,510170
0,452080
-0,008628
0,915866
0,412932
0,587278
-0,177110
-0,050160
-0,412520
-0,133768
0,183753
-0,050409
0,900020
-0,837263
-0,959602
-1,321229
-1,364148
-1,182745
-0,234868
-0,303504
0,102259
0,031103
0,588055
0,983382
-0,425980
-0,112567
0,765588
0,888390
-0,956113
-0,770007
-1,239157
-0,848326
-1,736753
-1,078283
-0,928268
0,168663
0,082720
-0,353102
-0,254316
-0,177953
0,609031
-0,335396
0,317570
-0,373687
0,526692
0,086106
0,390468
1,410377
0,545380
-0,313977
-0,354942
-0,401222
-1,262795
-0,504545
-0,446172
0,080070
-0,900295
-0,760729
0,134938
-0,590979
0,547988
0,067978
0,257199
0,619572
0,477025
0,610653
1,027106
-0,366330
-0,241130
-0,173316
-0,094015
-0,418016
-0,277768
0,058407
-0,659584
-0,854318
-1,131737
0,856267
-0,007086
-0,678036
0,020604
0,534914
0,990631
0,901075
0,749592
0,380746
0,585492
-0,075467
-0,126274
0,133439
0,176320
-1,154223
-0,310170
0,130520
-0,356612
-0,231046
-0,898957
0,141495
0,593953
0,317941
0,680685
0,036314
0,524789
0,032025
0,928171
0,631818
0,504532
-0,074298
-0,203960
0,005409
-0,780826
-0,773366
0,011529
-1,011109
-0,323098
-1,146270
-0,583418
-0,505664
0,520836
-0,017852
0,250927
0,908342
-0,015965
1,311481
-0,083655
0,484058
-0,261605
1,297231
0,313216
-0,023876
0,271478
-1,298139
0,092733
-0,518281
-0,218009
0,300380
-0,081816
0,266041
-0,489933
0,898570
0,451157
0,215330
0,690224
0,499135
0,542512
0,363266
0,422543
0,167845
0,424343
-0,287016
-0,527573
-0,261513
-0,791247
-1,300397
-0,170765
-1,187882
-0,499663
-0,661724
-1,124458
-0,184629
0,191416
1,128063
0,875832
0,699556
-0,683729
0,360930
0,386369
0,615463
0,395826
-0,584197
-0,564010
-0,669985
-0,341365
0,068978
-0,204329
-0,298070
-0,542648
0,010480
-0,035304
0,205594
-1,028189
1,123087
-0,026036
1,423363
0,757194
0,109184
0,400729
0,553234
0,452317
-0,165858
0,302472
-0,681089
-0,461491
-0,169579
-1,362057
-0,516627
-0,724010
-0,538404
0,317900
-0,629392
-0,249726
0,527048
-0,074569
0,670646
-0,442738
1,024625
0,209035
0,246144
-0,250280
-1,366733
-0,035828
-0,464582
0,245017
-0,178319
-0,466127
-0,425584
-0,203795
-0,675821
-0,924105
-0,032727
0,116692
0,959239
-0,383717
0,735061
0,464419
0,873268
-0,497462
0,693389
0,155153
0,257841
-0,176012
-0,323316
-0,242536
-0,481762
-0,637635
-0,777091
0,205470
-0,530380
0,573382
0,328942
0,320487
-0,364953
0,656578
-0,242654
0,565244
1,155508
1,647440
0,322954
-1,091145
-0,072464
-1,275952
0,256937
-0,324861
-0,127440
-0,476521
-0,714663
-1,023784
0,199029
0,223911
1,396943
-0,365828
-1,386525
-0,198460
-0,329151
-0,833523
0,015415
0,390205
0,385667
-0,229461
0,519107
-2,096658
-1,769401
-0,317241
-1,200200
0,155860
0,145707
0,422193
0,696938
-0,636444
0,144481
-0,458563
-0,181931
-0,357012
0,513642
0,866131
0,959432
-1,461980
0,363252
0,664623
-0,084600
0,243268
1,277121
-0,669813
1,418283
-1,051013
-1,009123
-0,689716
-0,753022
0,318991
1,019153
1,045003
0,598305
0,212325
1,443825
1,659287
0,463226
0,165091
-1,449656
-0,955740
-0,321024
-0,174222
-0,418867
-0,790872
0,778930
0,138328
-0,485921
-0,693450
0,775601
1,861765
-0,126493
0,775031
-0,048344
0,922352
0,380079
-1,677988
1,035573
0,579362
0,956807
0,528014
2,851530
0,894195
-1,091301
-0,844717
-1,200109
-1,890751
-0,431681
-0,225087
-1,301583
0,801242
-0,551064
-0,814362
0,055293
1,819711
1,538364
0,317401
-0,705539
-0,181307
0,352119
-0,661693
-2,180300
-1,086385
-1,378439
-1,431770
-2,142885
-0,549827
-1,496564
-1,041800
0,204053
-0,679813
-0,984349
-0,932128
1,697762
0,591822
-0,702782
-0,444502
-1,675565
1,232722
-1,671109
0,300227
0,684197
-0,215364
-0,275035
1,416875
-1,085224
-0,942027
1,174899
0,002998
0,728837
2,076559
1,866798
0,477266
1,015381
-3,532627
-1,280360
0,840332
2,173800
2,199595
1,774229
1,162735
-1,691874
0,080297
-1,256232
0,109179
-0,282535
-0,529239
0,048897
0,617833
0,433285
0,635392
0,368904
2,257196
1,055857
1,374818
0,761515
1,462477
0,728728
0,695951
0,431793
1,056401
-1,995009
-0,967946
-1,354266
-1,215483
-1,337531
0,468663
0,158858
-1,501881
-0,025074
0,482015
-0,484450
-0,864783
-1,066606
0,877073
1,144036
0,485239
2,341998
0,762229
-0,451590
-0,111935
0,506661
-0,685348
-1,173884
-1,588636
-0,285471
-0,697216
-1,091130
0,484695
0,155544
-0,154704
-0,254293
-0,004074
0,530030
1,987144
0,381961
1,954115
-0,734584
-1,251355
-1,147312
-1,164297
-1,447805
1,034010
-1,385536
-0,078647
0,159623
-1,080840
-0,938824
-1,331686
0,675586
-1,972914
0,977833
-0,195463
2,737201
0,508851
0,711506
1,611614
-1,273313
-0,457044
1,189665
2,032921
0,791600
-2,659624
-0,793728
1,886564
-0,400769
-1,323963
-0,810894
-0,371443
0,981131
-0,113672
-0,294640
-0,551384
2,609889
0,821677
-1,233841
-0,691591
-0,628653
-1,927251
-0,442940
1,216895
-0,733828
0,505716
0,647326
0,510831
1,375021
0,868304
0,637101
1,616705
1,178600
0,204456
-1,924762
0,105196
1,345339
-0,293953
-0,855342
-1,361173
-1,252039
1,526120
0,951998
2,512079
-1,504035
-1,631085
-2,715953
-1,623550
0,888280
-0,557121
0,356776
-1,615767
-0,244720
0,104296
1,298443
1,990373
0,819570
2,845086
-0,969369
-1,720655
-2,773332
-1,106426
1,551917
-0,905207
-0,746981
-2,652256
2,164219
0,233214
0,833341
-1,842940
-0,082858
-0,266279
-1,005070
-0,456741
0,111057
-0,513611
-0,129479
-0,432896
2,385437
3,059994
1,510127
3,930971
0,890844
1,094681
-2,414608
-1,783840
-1,023929
-0,488595
-1,968759
0,148757
-1,963127
-1,738295
-0,742906
0,119263
0,572035
-0,285314
1,018110
3,432462
0,367836
0,003848
0,293478
1,705470
0,272014
2,086370
3,740985
0,651242
-3,521138
-4,799564
-2,048822
-0,392075
-0,765190
-0,725104
-2,782111
-0,192598
-2,551152
1,128178
1,111852
1,422244
1,800893
0,544595
-1,439103
0,950946
-0,671059
-0,647989
-1,350715
2,307522
-0,247001
-0,913754
1,838153
0,393133
0,399960
-1,974805
-1,466735
-1,044190
-0,549480
0,420118
0,997019
-1,113822
-0,477448
1,085012
0,648883
0,667694
-2,394019
-1,792638
-1,228102
1,028526
1,148273
-0,415657
-0,501395
0,837528
1,259762
-0,180180
-1,226589
-1,646948
-2,796579
-1,064676
2,705795
0,395250
2,556210
2,750658
-0,431385
0,352275
-1,626912
-0,232321
-0,713620
0,557659
-0,447837
-0,327064
2,235181
0,562017
-1,283416
-0,923631
1,254324
1,084814
2,413859
2,607024
1,829313
2,976252
2,896868
2,311344
0,307336
-2,364208
-1,970816
-3,323211
-2,967252
-1,999768
-2,659473
-1,822783
1,697659
-1,203378
-2,827030
-3,758273
-1,283154
5,470465
-2,086640
0,121059
3,626335
2,669629
3,098352
0,466035
-0,485260
-0,627240
-0,840484
-1,962173
0,123339
0,626100
-0,056376
-2,522695
-5,184850
0,143991
0,946225
1,109551
-0,703477
2,702791
2,706872
1,121421
-0,827635
-1,549710
0,163720
0,708084
-0,141109
-0,572452
4,292671
1,692213
-1,740175
-4,151295
-2,098081
0,093738
-0,984217
-1,379286
-3,113720
1,298679
0,706556
0,298095
1,050903
-0,683890
-0,611083
-0,562026
3,252940
0,953672
-3,171011
-2,046332
1,600369
1,142885
1,825954
-1,838674
-3,091859
2,626672
0,264515
2,235941
-2,721245
-2,178683
0,448207
2,567053
1,109924
-0,974995
-0,103988
1,298397
1,405107
4,430986
3,754676
1,919093
-0,220787
-0,813074
-1,348691
-3,079453
0,061106
-0,501823
-1,376516
-3,301006
1,800818
1,107355
-0,692459
-0,457550
1,325025
2,575525
1,562573
-1,729379
2,891180
2,615701
0,518922
0,895263
-0,676059
-2,954417
1,120401
2,030130
-1,673233
-2,294200
0,849296
-0,624009
-1,077715
-1,344819
-0,563578
-0,705252
-2,868927
-1,586815
-0,855639
-0,962078
-0,753000
2,690403
2,809993
3,134603
1,250697
-0,315564
1,228163
5,217620
2,019766
-2,056143
-0,611813
-1,303271
-1,175784
1,332506
-0,129253
-1,056917
0,763425
0,601381
0,774560
2,004603
0,421682
-0,809030
-0,941273
2,138188
1,354594
1,432861
-1,242321
-2,516957
-4,698675
-1,210260
0,707981
-2,344925
0,268461
2,720358
2,477139
-1,491051
-0,971721
-0,031527
0,372813
1,488946
-0,065291
0,415144
1,156141
-1,446749
0,857707
-1,823402
1,415342
1,967507
4,537078
-0,014031
-2,605285
-2,090598
1,466430
0,872303
-1,874354
-1,840174
-2,898271
-2,361108
-3,360580
-0,914798
0,780674
-0,949031
1,708600
1,545379
1,715053
0,354897
-0,110198
0,380850
1,143935
-0,068969
-1,360061
-3,577989
-1,846001
0,441499
1,053626
-2,115831
2,177666
2,242273
-0,230523
-0,397215
-2,470786
-3,907729
-1,073521
1,740240
-2,210193
0,325146
2,049288
1,700492
2,173990
-0,407145
-0,190872
0,349837
1,802199
-2,806504
2,690119
2,260206
-0,428482
0,767778
0,386087
3,323505
1,916803
1,766871
-2,762952
-4,290535
0,874988
3,779265
0,407359
-2,186617
-1,840351
-2,487060
0,100030
-0,151543
-3,709838
-1,972565
-0,646773
-0,943292
0,935075
0,697771
-0,832878
0,347593
1,099295
1,032551
-0,091876
1,974769
1,327299
0,169581
0,901077
1,038380
-0,903749
-1,909225
-1,230243
-4,764638
-1,583204
-1,205902
3,542176
-0,745975
-2,274020
-1,197143
0,423223
-2,496314
-1,134780
0,361905
1,108475
0,593577
0,484314
1,343588
0,738987
2,738161
-0,574526
-1,786366
2,253057
-0,620658
0,590573
0,280556
-0,951066
1,596461
2,407845
0,778770
-2,484012
-1,163292
-2,836555
-2,036478
1,258787
2,269661
1,136492
2,654005
1,387481
2,924732
0,680264
-1,151906
-2,018230
1,208284
-0,334980
0,733909
-2,194155
0,759186
2,457737
-0,204100
0,898020
-1,718589
0,382257
0,012423
-0,706841
-0,260683
-2,231069
-1,607437
-1,219798
0,525421
0,123481
3,804564
1,407534
1,389558
1,110469
-0,086018
2,057617
-0,780504
-2,583703
0,130426
2,104259
-1,311939
-1,196114
1,085168
1,202462
1,087665
0,744486
-1,410390
-3,251874
-0,093883
0,260714
0,009886
-1,248684
-3,174837
-0,077554
-0,503616
-0,495343
-0,048906
1,800644
1,871499
1,815845
1,614591
2,905848
0,236603
0,131155
0,175424
-1,074778
-0,238507
0,803051
0,216674
1,937380
2,665110
-1,253879
-1,244722
-1,319774
-0,109602
-0,864299
-2,041974
-2,143082
-0,661730
0,978445
1,736463
0,640182
1,501809
-0,845574
-0,063055
0,731176
-0,656611
-0,648437
0,840922
-0,667724
-0,729765
1,018257
-0,018167
-4,154149
-0,997593
-0,305329
-1,724938
0,666099
-1,307355
-2,411416
0,583317
1,793659
0,629515
-1,048993
0,968309
-0,253180
0,056430
-1,424397
2,198862
1,712176
0,635241
1,383475
-2,022398
-1,745110
-4,315122
-1,710174
-0,354729
-1,337663
-1,579710
0,276259
2,181666
1,759167
1,407035
-1,074357
2,412962
0,667536
-1,731709
-1,117306
-1,277422
-0,942442
-1,114460
-1,133672
-2,055493
-0,333602
-0,577931
-0,285673
-1,302080
-0,075687
-0,477491
2,092609
0,397695
-0,058268
0,744254
0,805292
0,169738
0,443895
-0,936516
0,149768
-0,046167
-1,039040
-0,384526
1,232583
-0,469381
0,436277
1,209445
-0,342111
-0,775536
-1,115459
2,808615
0,089957
-1,215499
1,488791
0,162226
0,290125
0,990719
3,010861
-1,584986
-1,175576
-0,323762
0,722849
-2,001138
-1,780937
-0,939641
-1,052807
-0,330005
0,037137
-0,491098
1,904127
1,196751
1,316836
1,159774
0,298492
1,405509
1,354219
0,464115
0,118030
2,332975
-0,388856
0,349129
1,059554
0,112114
-0,544210
-0,017894
0,124151
-0,644008
-0,048026
0,212746
0,400795
-0,322251
0,976846
0,230987
0,242790
0,185402
2,053443
-0,394534
-1,251781
-0,755104
-0,169353
-1,170770
0,229521
-0,732831
-2,915925
0,029630
-0,547384
-0,935847
0,272515
0,515024
-0,019501
1,579699
0,468597
-0,632399
-0,545986
-0,212388
-0,119055
0,034498
-1,432479
-0,284038
-0,593469
-0,531619
-1,663313
-0,486307
1,800332
-0,181625
-0,061972
-0,892945
-0,268909
-0,684100
-0,891909
1,007685
0,610901
0,171970
1,021569
3,110230
1,772627
1,947243
1,169031
0,271648
0,186676
-2,198272
-1,178787
-0,655616
-0,322014
1,869968
1,129048
0,085221
0,093432
2,277858
1,545629
1,551487
1,749615
-0,049109
-0,738604
-0,707617
-0,896240
0,026744
0,428253
-0,078659
-0,821255
-1,273629
-1,631204
0,079716
-1,409886
-0,346844
-0,645181
-0,759471
-0,726769
-0,054438
0,411785
-0,739841
1,734041
1,422386
0,896780
0,423667
0,700040
-1,793274
-0,858231
1,491103
-0,891244
0,625379
0,533413
-0,165292
-0,572847
-0,640781
-0,529389
-1,930436
-1,347079
0,492551
-0,029839
0,201032
-1,145822
0,326494
0,622519
0,145828
0,345854
0,887222
-0,557241
-0,154614
1,132339
-0,104772
-1,348534
-1,319474
0,341305
0,009925
-0,027448
0,802489
-0,055907
-0,544140
1,246772
-0,122252
-0,079874
0,573049
0,543852
-1,682197
0,852991
1,241749
-0,261746
0,061852
0,519205
0,408133
-0,372809
-0,239699
-0,682615
-0,638582
-1,241606
-0,219017
0,047216
-0,489661
0,910781
0,079277
0,034644
-0,108734
-0,494644
0,364481
0,646032
0,047382
0,238331
-0,321313
-0,179693
0,057048
0,103475
-0,332335
-1,302296
-0,267424
-0,543457
-1,040923
-0,023192
-0,051330
-0,114220
0,808912
0,649323
0,213217
-0,031828
-0,578322
0,108068
0,466107
-0,024413
0,237255
-0,426786
0,035300
0,283790
-0,604711
-0,566245
-0,176316
-0,623702
-0,099227
-0,749316
0,411320
-0,053045
0,850720
0,220081
1,041544
0,312414
0,818665
0,742713
0,139099
0,522514
0,268008
0,166421
-0,628430
-0,139483
-0,789171
-0,937293
-0,214951
0,035545
0,519687
-0,548341
-0,370333
0,386019
0,644628
0,949651
0,424774
0,016904
-0,299351
1,355783
-0,468935
0,876707
-0,264588
-0,442151
-0,377894
-0,086352
-0,557991
-0,105827
-0,450884
-0,844863
-0,022414
-0,953111
-0,106636
0,666367
0,795220
0,767609
0,257460
0,733664
0,553750
0,429797
-1,046158
0,425709
1,191405
-0,859729
0,188602
-0,370273
0,235504
-0,317980
-0,718967
-0,154968
-0,220277
-0,761279
0,808957
-0,032323
-0,170005
1,006157
0,360461
0,369213
0,858634
0,658648
1,393680
0,002247
-0,063544
-0,941108
-0,870099
-1,246907
-0,717625
-2,175402
-0,007705
0,095519
-0,311112
0,110114
-0,037645
0,177092
-0,003164
1,145731
0,290271
-0,542760
0,088182
0,040272
0,633418
0,400245
0,161316
0,203176
-0,927327
-0,559795
-0,259837
0,538629
-0,803974
-1,649786
0,283368
-0,311702
0,218243
0,257217
-0,064005
1,160700
1,651149
0,113619
0,840602
0,654464
-0,418117
-0,273529
0,704002
-0,821143
0,556019
0,452549
-0,610494
-0,892243
-0,232119
-1,394826
-1,004314
-0,306833
0,033953
0,505232
0,887298
-0,091708
0,229974
0,831465
0,614140
0,722230
0,888922
0,420587
-0,522032
0,275396
-0,364832
-0,652368
0,570547
-1,163624
-0,800307
0,459669
-0,054337
-0,084278
-0,926621
-0,234752
0,315397
0,193750
1,382453
1,496069
0,450747
0,891569
0,866575
0,362838
0,525769
-0,955299
-0,507043
0,062069
-0,256112
-0,722589
-0,358194
-0,141055
-0,741743
0,089419
-0,499721
0,689700
0,597425
0,680081
0,712860
0,857285
0,787699
0,378747
1,173567
0,010223
-0,468504
-0,555314
-0,539209
-0,147429
0,684584
-0,789832
-0,551489
-0,366725
-0,168702
-0,517075
0,494343
0,424145
-0,139358
0,614805
0,360297
0,204123
0,691729
0,400755
0,327236
-0,178257
-0,222258
0,620513
0,712299
-1,027314
-0,335539
-0,247013
-1,223375
-0,342969
-0,333826
0,178809
-0,734802
1,008659
1,191536
0,761920
1,341458
-0,339794
0,391327
0,392472
0,960866
-0,100698
-0,382472
-0,116127
-0,609950
-0,245488
-0,823383
0,446621
0,192599
-0,809960
-0,285585
-0,398701
-0,096840
0,295841
0,557146
-0,195013
0,402376
0,918585
-0,189222
-0,255085
1,584653
-0,174517
0,477931
-0,454604
-0,313199
-0,583098
-0,410548
-0,422106
-0,641974
-0,416495
-0,589186
-0,180532
-0,334489
-0,157355
0,127478
0,602477
0,291417
1,211329
0,141559
1,167116
0,409781
0,606162
-0,454715
-0,784909
-0,659642
-1,060859
-0,722168
-0,603428
-0,406673
-0,999400
-1,515348
0,451573
0,115778
-1,041893
0,780540
0,275254
-0,413152
0,127098
1,082852
0,066884
-0,132550
-0,101222
0,527029
-0,030973
-0,439540
-0,397395
0,048471
-0,068307
-0,613516
-0,409455
-1,254816
-0,322726
0,115024
0,027913
0,407636
0,371680
0,898881
1,072217
0,075602
0,803408
0,422164
-0,485821
0,563779
-0,233341
-0,637689
-0,794604
-0,634589
0,104724
-0,705139
-0,481854
-0,065994
-0,163699
0,483443
0,295222
0,105043
0,389592
0,038555
1,143548
0,888727
0,570169
0,107205
0,394816
-0,201603
-1,123383
-0,282485
-0,212648
-1,153143
-0,484376
-0,472444
0,107566
0,903634
0,769122
-0,192745
0,151092
0,560584
0,271145
0,933302
0,683606
1,165119
0,622522
0,481327
0,273126
-0,078151
0,088762
-0,086630
-0,149924
-0,788729
-0,890515
-0,451883
0,022987
-0,552452
-0,169304
0,407818
0,372093
-0,532493
1,255206
0,430935
0,142814
-0,048528
0,448386
0,929951
0,670377
-0,388259
-0,723247
-0,533026
-0,006581
-0,007545
-1,142457
-0,303443
-0,112589
0,109972
-0,109920
-0,656307
0,225730
-0,060940
-0,757618
0,633106
0,863703
1,126814
1,178038
0,033710
-0,387655
0,106414
0,341372
0,391005
-0,858856
0,188963
-0,685950
-0,965622
-1,006276
-0,243707
0,350065
0,553167
-0,527909
1,226196
0,444725
1,158764
-0,585556
0,614499
-0,612258
0,082804
0,297248
-0,484941
-0,162327
-0,574998
-0,812915
-0,381923
-0,450424
0,199504
-0,163097
0,476632
-0,229234
0,077279
0,026036
0,237849
0,273728
0,030018
2,016465
-0,162157
0,928108
-0,310098
-0,008000
-0,220556
0,720792
0,385771
0,274085
-0,334396
-0,392650
-0,105375
-0,977481
-0,733339
0,090202
0,024123
-1,081740
0,221213
0,670928
0,556969
-0,063938
0,274696
0,492048
0,043076
0,261284
0,975514
0,052756
-0,369047
-1,375276
-0,494317
-1,253794
-0,140991
0,056256
-0,589757
0,410585
-0,681282
0,897168
0,589152
0,117195
0,088914
-0,366504
0,936285
1,035952
0,819655
0,322982
0,420781
0,000321
1,017062
0,115484
-0,024448
-0,002285
-0,832217
-0,522803
-0,338306
-0,457993
-0,551376
0,547906
1,002980
-0,065179
0,495600
0,500665
1,756741
0,454270
0,117638
-0,931538
-0,611918
0,082087
0,255468
0,379181
-0,868433
-0,073112
-0,245977
-0,383074
-0,657261
0,238975
0,325413
0,641813
0,305476
-0,114886
1,735288
1,025639
0,552185
0,648915
-0,090571
0,938191
-0,393700
0,186300
0,776912
-0,437234
-1,084414
-0,638717
-0,261627
-0,673054
-0,495612
0,601808
0,240772
0,123641
-0,590958
-0,347695
-0,285026
0,237798
0,941739
-0,408166
0,199924
-0,105709
0,060413
-0,718272
-0,999198
-0,481512
-0,531405
-0,007639
-1,137652
-0,370825
-0,842293
0,580428
-0,634373
-0,228675
0,502710
1,024845
0,035074
0,497266
0,033250
0,307993
0,226707
0,619089
-0,420239
-0,291820
-0,402791
-1,569712
-0,272362
-1,138128
-0,131674
-1,050915
-1,004283
0,282412
0,311493
-0,402745
0,548669
1,236453
1,165605
0,642960
-0,270296
0,033231
0,395651
0,417631
-0,199771
0,231425
0,062588
-0,050969
-0,691837
0,179702
-0,592425
-0,390407
-0,339137
0,292117
0,157395
-0,488831
1,059250
0,218682
0,811322
0,249840
1,054876
-0,243636
0,584447
1,102079
-0,138490
-0,267270
-0,485674
-0,185286
0,136460
-0,289797
-0,233423
-0,540593
0,322240
0,142031
0,018351
0,327596
-0,228819
0,803503
0,940509
0,585140
0,469656
0,495204
-0,516327
0,749852
0,268174
-0,745403
0,524693
-0,550197
-0,237664
0,181482
-1,104424
-0,167222
-0,686504
0,662391
-0,099528
1,162304
0,513021
1,214759
0,373154
0,455721
1,002269
0,729072
-0,040783
1,325409
0,383691
-0,578117
-0,467964
0,075188
-0,821310
-0,713115
-0,110957
-0,234171
-0,486922
0,407758
-0,848855
0,736945
-0,301537
1,105823
0,322197
0,153438
0,683728
0,943274
0,756819
0,129660
0,219792
-0,737572
-0,611219
0,165244
-0,569154
-1,137499
-0,845520
-0,797424
-0,298750
0,026636
0,144462
-0,002187
0,247018
1,351821
0,299944
0,349792
0,528303
0,339905
-0,614537
0,201986
0,078636
-0,662881
-0,943736
-0,358475
-0,840522
-0,682059
-0,857917
0,742625
0,203004
0,667300
0,900000
-0,115224
0,816201
-0,334089
-0,183108
0,750014
0,256765
0,438814
-0,405370
0,122152
0,166468
-0,210188
-0,393186
-0,704145
-1,448876
-0,262476
-0,780669
-0,573311
-0,005145
0,459610
-0,047906
0,870834
1,041700
0,797722
1,051832
1,472396
0,242046
0,296676
0,932334
-0,034485
0,016309
-0,653267
-0,777896
-0,102856
-0,621341
-1,188166
-0,543946
-0,128894
0,929856
-0,761698
-0,582853
0,287675
0,146162
0,750452
0,141417
0,338935
0,366547
-0,137051
0,466905
0,917989
0,313212
-0,376400
-0,013071
-0,222740
-0,989690
-0,218756
-0,887218
-0,604545
-0,026168
-0,284628
-0,478980
0,517995
0,700558
1,049241
0,057238
0,912739
0,109077
-0,056418
0,751292
0,028163
0,268730
0,064148
-0,535169
-0,726241
-1,351836
-1,290895
-0,671103
0,559351
0,199728
-1,046167
-0,183115
0,074565
0,741838
0,963574
0,171496
0,867562
1,162333
0,537511
0,979977
-0,195144
0,115964
0,057300
-1,306568
-0,538830
0,195293
-1,092532
-0,942065
0,494306
-0,494777
-0,059213
-0,578884
0,824391
1,012728
0,330257
0,783027
0,606480
0,318062
0,240693
1,166864
0,294911
-0,184544
-0,275151
-0,457947
0,257569
-0,681403
-1,065108
-0,391397
-0,101287
-0,796574
-0,983721
1,470187
0,359294
-0,257533
0,637219
0,697220
0,301490
0,314153
0,607628
-0,273171
-1,267044
-0,006848
-0,248240
0,391704
0,195497
-0,353888
-0,388923
0,440483
-0,241044
-0,436939
-0,427975
-0,600591
-0,642124
0,122133
0,361145
0,663025
0,097276
-0,313410
0,275653
-0,575494
0,311344
-0,758877
-0,415329
-0,575174
0,048692
-0,345431
-0,540738
-0,731581
-0,236796
-0,324798
-0,245736
-0,670369
0,714594
0,773801
0,623206
0,450850
0,916222
0,000882
0,043584
-0,528378
0,304149
-0,834553
-0,168237
-0,325261
0,236844
-0,763722
-0,595887
0,113203
-0,340944
-0,837681
0,282426
-0,559123
0,510615
0,914498
0,120735
1,070181
0,824289
0,899252
0,996548
0,324818
0,927801
0,739896
-0,968348
-0,582299
-0,601061
-0,688714
0,187674
-0,938717
-0,221314
-0,152101
-0,112293
-0,743758
0,614468
1,459390
0,467180
1,268742
0,213238
0,895617
0,059509
-0,540343
-0,371409
0,047177
-0,232766
-0,302727
-0,172532
-1,561461
-0,576008
0,372286
-0,528216
-0,298233
-0,310670
-0,078958
0,410219
0,394566
0,225861
1,260768
0,609352
0,306662
0,187114
0,525975
0,707387
0,428845
0,342983
-0,112280
-0,896216
-0,394772
-0,425897
-0,953429
-0,198899
0,056211
-0,264626
-0,175942
0,622832
0,084400
0,483740
-0,125477
1,081976
0,562585
0,703983
0,878671
-1,048479
-0,149071
0,658208
-0,057449
0,554129
-0,511219
-0,190711
-0,090163
-0,143243
0,244110
-0,627485
-0,240901
-0,490646
-0,341927
0,480682
0,137538
0,310431
1,122169
0,515304
-0,319505
0,609593
-0,267558
-0,204556
-0,106474
-0,430522
-0,559849
-0,526154
-1,149084
-0,380052
-1,149761
-0,368916
0,043399
1,108983
0,658271
0,304731
0,615324
0,758380
0,877572
-0,220464
-0,203722
0,289872
-0,231042
-0,823699
-0,746505
-0,699984
-0,734667
0,228597
-0,960107
-0,833884
0,211902
0,602131
0,247181
0,262444
0,099215
1,187475
0,902307
1,171804
0,116262
0,420817
1,159697
0,660658
-1,349939
-0,100994
-0,219277
0,189660
-0,726476
-0,009669
-1,160555
-0,096102
0,431846
-0,510330
1,533414
0,930069
0,539267
0,334713
0,286384
1,015782
1,060641
-0,675125
-0,073699
0,491441
-0,177230
-0,364666
-0,366690
-0,692841
-0,550450
-0,796925
0,223834
0,378670
0,796733
0,051586
0,135654
0,239578
0,146233
0,497731
-0,268605
1,082773
0,015943
0,340227
0,407639
1,297121
-0,176589
0,159222
0,292362
-0,160295
-0,356107
-0,222687
-1,093546
0,283474
-0,279148
-0,360362
-0,267126
0,021520
0,265473
0,698414
0,028284
0,575617
0,361790
0,446690
0,339759
-0,911844
0,496235
-0,584770
0,371988
-0,737007
-0,123399
-0,315617
0,382979
-0,329134
-0,598029
0,007443
-0,073714
0,125756
0,441184
-0,001088
0,757440
0,301518
-0,251941
0,875146
0,569221
-0,047804
0,008340
-0,138558
0,061874
-0,054491
-0,929421
-0,799780
-0,058105
-1,015502
-1,016929
0,572026
-0,754743
-0,865123
0,103151
0,880319
0,297110
0,232870
0,275504
0,845794
1,491103
0,072494
-1,045400
-0,273164
-0,933433
-1,686151
-1,168689
-0,100505
-0,476406
-0,640589
-0,079136
-0,108465
0,076872
0,921492
1,030810
1,055131
0,496760
0,654712
0,741911
0,847502
0,269123
0,068801
0,217837
0,248020
-0,288418
-0,361257
-0,390096
-1,069516
0,274687
-0,082717
-0,693784
-0,034242
0,713753
0,500488
1,374996
-0,208317
0,058927
0,627427
0,002559
-0,307142
0,302638
0,799430
-0,246964
-0,630124
0,378087
-0,452451
-0,667282
-1,373429
0,582769
-0,242865
0,021751
-0,122895
-1,510363
-0,702824
0,242503
0,450224
0,439020
-0,305941
0,049785
0,125713
0,317441
-0,125552
-0,253862
-0,053959
0,288668
-0,589032
0,135800
-0,511726
-0,862250
-0,197337
-0,210978
0,175667
-0,450423
-0,484306
1,149796
0,528507
1,067331
0,021565
1,714124
0,013396
0,961004
-0,283225
-0,127839
-0,610789
-0,955672
-0,144884
-0,555618
0,917246
-0,910343
0,398536
-0,846622
0,207476
0,190427
-0,828878
0,245022
0,487740
0,309344
0,603344
0,242707
-0,496776
0,436143
0,119501
-0,507056
-1,080721
-0,241024
-0,006836
0,665071
-0,468818
-0,453645
-0,748561
-0,414451
0,749001
0,455228
-0,088544
1,095441
0,185989
1,389021
0,570512
0,497130
0,300125
1,082219
-0,231462
-0,018883
-0,014387
-0,374172
-0,522456
-0,270969
-0,285605
-0,035981
-1,071070
-0,905131
-0,000574
0,108986
0,100511
1,389489
0,794959
0,307048
0,408280
0,761370
0,401822
-0,369373
-0,364236
0,194153
-0,208133
-1,123080
-0,754540
-1,002945
-1,041082
-1,008738
-0,165472
-0,920676
0,457759
-0,659417
0,555660
0,595721
-0,361547
0,248465
0,917917
0,363686
1,251201
0,208336
0,589744
-0,269917
0,040131
0,173421
-0,451391
-0,228565
-1,444447
-0,317914
-1,181756
-0,050442
-0,000761
-0,187373
0,477149
1,141115
-0,123692
0,850877
1,387210
-0,010674
-0,047670
-0,250982
0,198082
0,225247
-0,950087
-0,924668
-0,582686
-0,244487
-0,197565
-1,127445
-0,410373
-0,978827
-1,211651
0,349169
0,727099
0,140283
0,033166
1,019335
0,375175
0,781927
0,059764
0,760936
0,320909
-0,245276
-0,647646
0,022595
-1,057701
-0,060404
-0,715696
0,090041
-2,204000
-0,426877
-0,571668
-0,330986
0,018988
0,918193
0,119585
0,162903
0,607433
1,116707
0,755474
0,408938
-0,123867
-0,776072
0,043914
-0,077121
0,073644
-0,488240
-1,658576
-1,340870
-0,893358
-0,363779
-0,209087
-0,103623
0,557659
0,587957
0,009204
0,040824
0,625724
0,790570
0,393685
0,198161
-0,975278
0,646455
0,169964
-0,751590
-0,100639
-0,866617
0,228219
-1,150381
-0,648603
-0,884659
0,231673
0,463207
0,233024
0,163823
0,482864
0,553833
-0,081150
0,245451
0,748435
0,226890
0,074717
0,289091
-0,734936
0,100855
-0,136210
-0,709027
-0,224876
0,578297
-0,483730
-0,593349
0,395283
-0,700399
0,483390
0,205743
0,536717
0,224938
1,039545
0,272364
0,603280
1,232965
0,206910
0,243021
0,020493
-0,836003
-0,075209
0,381616
-0,063400
0,981425
0,680379
-0,152658
-0,119211
-0,557637
0,056261
0,464296
0,537526
0,956463
0,713415
0,097841
0,022792
0,208407
1,808559
0,150775
0,904807
-0,436258
-0,337053
-0,775687
-0,386109
-1,325416
0,107149
-0,735695
-0,425264
-0,067003
0,221533
0,382898
-0,381068
1,293815
0,257066
1,165704
0,662382
-0,278005
-0,173113
-1,086397
-0,151221
-0,716698
-0,470837
-0,529264
-0,707955
-0,438870
0,062010
0,415431
-0,594112
-0,360102
-0,454861
-0,567760
0,015687
0,554963
1,467898
0,204809
-0,038677
0,274491
-0,406783
-0,117746
-0,073978
-0,430106
-0,692621
0,401906
0,099524
-0,892793
-0,681886
-0,036756
0,109648
0,948550
1,016601
0,468420
0,004954
0,965648
-0,029164
0,713633
0,557286
1,300470
0,519942
0,539992
0,575877
-1,044278
-0,967854
-0,804965
-0,672864
0,439670
-1,036605
-0,521219
-0,312270
0,107168
0,429389
-0,511354
0,436834
-0,069121
0,194381
0,685004
0,574483
0,545131
-0,240038
-0,048229
-0,598823
-0,347128
-0,101105
-0,344514
-0,525468
-0,401816
-0,322929
-0,426931
-0,030419
0,589768
0,619272
0,282622
-0,574655
0,195959
0,876406
0,343361
0,591182
0,065226
0,906890
-0,291167
-0,162418
-0,690541
-0,774882
-1,021057
-1,096750
-0,716716
0,511574
0,528421
0,284547
0,084788
0,594425
0,458909
1,055073
-0,075953
0,692008
-0,309679
1,041545
0,007608
0,306443
0,479325
-1,197238
-0,868120
-0,932772
-0,631293
-0,503841
-1,667555
-1,485817
0,261894
0,571033
-0,241641
-0,108874
-0,695067
0,764210
0,285348
0,090230
0,225486
0,516409
-1,371285
-0,621528
0,384064
-0,568212
-0,141856
-1,379849
-0,287907
-0,559482
-0,305143
0,610169
-0,825072
0,230556
-0,366579
0,151307
-0,074897
-0,385173
0,328314
-0,027469
0,232855
-0,170465
0,593685
0,249491
0,341082
0,202711
-0,227489
-0,177244
-0,404074
-0,439861
0,026715
0,196107
-0,755796
-0,141291
0,204894
1,103441
0,107376
0,816989
0,512042
0,222792
0,768542
0,721671
0,165909
0,041923
-0,499281
0,165579
-0,330403
-0,158469
-0,168045
-0,144573
-0,980272
-0,444383
0,002620
-0,188387
0,262609
0,420060
-0,594944
1,277737
0,678825
-0,077369
0,333988
0,681211
0,852239
0,439654
-0,631229
0,300647
0,015800
0,194377
0,002781
-0,360257
0,105063
-1,122991
-0,864174
0,100745
-0,401781
0,435175
0,561237
-0,507894
0,637697
0,078069
-0,444668
0,346590
0,374555
-0,216657
-0,181419
1,111731
-0,468458
-0,409065
-0,877523
-0,525963
0,393153
-0,875362
-0,945236
-0,422602
-0,592298
-0,664536
-0,225585
0,749854
0,358762
0,507399
0,860750
0,972853
0,350440
0,767479
0,606663
-0,405911
-0,094135
-1,810866
-0,651666
0,316433
-0,239878
-0,442469
-0,507662
0,244387
-0,568046
-0,001615
0,332845
1,278739
-0,040098
0,247285
-0,366754
0,957006
0,837099
-0,498037
0,363898
0,377012
-0,342783
0,081720
-1,680224
-0,512180
-0,341639
-1,044751
-0,751326
-0,087889
0,323684
0,462220
1,294156
1,482355
0,131716
-0,017206
0,210666
0,072944
0,041197
0,036395
-0,514725
0,135659
-0,799086
-0,065088
-0,888672
-0,507555
-0,807667
-0,789339
0,225013
0,027325
-0,255240
-0,155670
1,313206
0,687827
-0,416076
0,617327
0,192652
0,446467
0,060941
0,073277
0,557839
0,562237
-0,673616
-0,503995
-0,746034
-0,626262
-0,362492
0,524714
-0,392439
-1,176321
-0,347324
0,693140
0,297574
0,037317
0,297909
0,507842
0,679172
0,148269
0,212392
-0,031198
-0,368232
-0,416443
-0,651449
-0,929652
-0,886839
-0,655076
-0,682826
-0,405235
0,020025
-0,595540
-0,378754
0,253339
0,184478
0,670099
1,004697
0,819178
-0,119123
0,268153
-0,197605
0,461780
0,140174
0,155215
0,051290
-0,375588
0,179164
-0,529383
-0,483759
-0,510023
0,253044
-0,033528
0,349487
0,461357
0,134858
0,410293
0,353252
0,405035
0,615199
0,314366
0,550962
-1,134627
-0,129113
-0,188790
-0,730382
-0,611836
-1,542097
0,223630
0,476234
-1,055201
-1,341623
0,416208
-0,400233
-0,110784
0,823758
0,260192
0,657835
1,349119
0,942709
0,577114
0,510972
1,020120
0,577457
-0,359118
-1,246543
-0,865288
0,106563
-0,283182
-0,458289
-1,029804
-0,683707
-0,947946
-0,504178
-0,080180
0,585736
0,649472
0,964354
0,715886
0,552403
0,074853
0,367283
0,394936
-0,342445
-0,794892
-0,609720
-1,079792
-0,562328
-1,521973
-1,390497
-0,327829
0,317628
-0,369262
-1,109757
0,521779
-0,634743
0,324574
-0,246596
0,906317
0,542405
1,594138
0,234322
0,527078
0,107246
-0,229344
0,470443
-0,925025
-1,179105
0,225963
-0,926556
-1,030239
0,193362
-0,587682
-0,773750
0,581742
0,386456
-1,341764
0,005168
1,109735
-0,468739
0,556997
0,417349
0,293627
0,309936
-0,822155
-0,095174
-0,393363
-0,108093
-0,547224
-0,188920
-0,314514
-0,151545
-0,701954
-0,456010
-0,008101
0,025093
0,159754
0,674773
-0,629826
1,286310
-0,840570
-0,118323
-0,486922
0,186337
-0,295878
-0,178712
-0,313354
-0,507758
-0,504862
-0,763862
-0,111239
-0,040587
0,246372
-1,123495
0,438372
-0,021519
0,423366
0,925198
1,083435
0,374925
0,355525
-0,155961
0,456045
-0,622795
0,549611
-0,212868
-0,065461
-0,706993
-0,056502
-0,500775
-0,353356
-0,801564
-0,390034
0,528190
0,560133
0,084294
-0,021034
0,425314
0,392818
1,290716
0,563418
0,932862
-0,703789
-0,360664
-0,567841
-0,189028
-0,265465
-0,673704
-0,558129
-0,291354
-0,237237
-0,623490
0,067384
-0,099396
0,638416
0,908831
0,853377
0,306826
0,505956
-0,423806
0,692512
0,726739
0,600992
-0,180710
0,552173
-0,234579
-0,449227
-0,116914
-1,178632
-0,271649
-1,577343
0,799443
-0,248237
0,115289
-0,669670
0,371861
0,315114
0,223432
0,231236
1,132608
0,372580
-0,116309
0,006361
0,021123
-0,526380
-0,432011
-0,700307
-0,650759
0,219606
-0,021454
-1,405277
0,093082
0,317408
-0,438126
0,810460
-0,089079
-0,386197
0,648514
0,316872
0,556675
0,323476
0,227323
0,522141
-0,207657
-0,659825
-1,049559
-0,463488
-1,310415
-0,047428
-0,756016
0,335080
-0,635869
-0,144925
-0,418845
0,043899
1,048321
0,975490
-0,398639
1,457568
0,471828
0,026954
1,754738
0,080384
-0,150322
-0,453487
-0,554453
-0,345034
-0,254765
-0,857066
-0,815493
-0,757737
-0,811646
-1,050745
-0,849113
-0,434565
0,200516
-0,038159
0,020521
0,835909
0,999732
0,368500
-0,083493
0,186648
0,185945
0,112736
0,040655
-0,575698
-0,007860
-0,732538
-0,273286
-0,382479
-0,349593
0,957695
0,097298
-0,844968
1,176977
-0,810611
0,327799
-0,343510
1,633169
0,647424
0,118184
-0,790691
-1,156378
0,822018
-0,281770
-0,761633
0,475938
-0,409111
-1,153150
0,165336
-0,325434
0,585347
-0,221606
0,332361
0,678187
0,479919
1,143196
0,266673
0,940301
0,734409
0,642864
0,340500
-0,227364
0,548167
-0,341464
-0,700840
-0,851497
-0,982465
-0,709951
-0,052078
0,250711
-0,038595
0,076818
-0,204301
0,424011
0,259259
-0,303414
-0,451461
0,453548
0,145086
0,573044
-0,443707
-1,233474
-0,469621
-0,684259
-1,020368
-0,389272
-0,694240
-0,800821
-1,468718
-0,257168
-0,597083
0,269007
0,287329
0,773698
0,486041
0,406346
0,660622
0,417094
1,026213
-0,352755
0,111876
0,113438
-1,028681
-0,228622
-0,828592
-1,238452
1,211246
-0,834383
-1,310977
-0,508304
-0,379020
0,571588
0,154675
-0,121214
0,544167
0,426981
0,709882
0,818367
-0,537944
0,007002
-0,279808
0,558493
0,363490
-0,768853
-1,629202
0,663776
-0,164816
-0,686769
-0,928413
0,093668
-0,626224
-0,283672
0,427874
1,031264
0,843859
-0,375006
0,373736
-0,469558
1,128790
0,687755
-0,878913
0,081932
-0,832897
-0,328173
0,648973
0,168472
0,719719
0,064924
-0,621373
0,442840
0,611454
0,018440
-0,023270
0,113824
1,036641
0,521535
0,627308
0,696853
0,849151
0,525137
0,037894
0,506799
0,285893
-0,543332
-0,099778
0,193857
-0,590555
-0,504166
-0,260966
-0,184491
-0,116207
0,489820
-0,130575
-0,302565
0,672981
0,193638
0,710174
-0,390464
0,566421
-0,010845
0,488121
-0,670445
0,692415
-0,415653
-1,291198
-0,092064
-0,385746
-0,596937
0,160441
0,105770
0,184857
-0,153325
1,082917
0,500755
0,435529
0,633372
0,491215
0,408623
0,385776
0,130590
0,483608
-0,608528
-0,488447
-1,313396
0,033655
-1,167664
-1,017534
-0,641752
-0,548816
-0,520021
-0,291918
0,197748
0,287835
0,433191
0,891920
-0,109492
0,971353
0,500742
0,090925
0,953168
0,463656
-0,044247
-0,333906
0,318352
-0,570241
-0,048751
-0,952325
-0,061860
0,073757
-1,285761
0,132192
-0,086959
-0,817963
-0,430713
0,168021
-0,436368
-0,072655
0,105509
0,384165
-0,128236
0,159327
0,720371
-0,310400
-0,380697
-0,761924
0,331773
-0,275498
-0,534952
1,007972
-1,205191
-0,494866
-1,471066
-0,380623
0,128447
0,340994
0,479763
0,386312
-0,570139
0,714154
0,050406
0,327118
0,286148
0,533269
-0,422563
-0,278853
-0,811252
-1,017579
-0,880084
0,035306
1,085686
-0,830120
0,623611
0,488308
0,653660
1,622098
0,821716
0,487500
0,991448
0,077508
1,180814
-0,146060
-0,585698
0,116059
0,048783
-0,675745
-0,494599
-0,052031
-0,692480
-0,980685
-0,202266
-0,022423
-0,221893
0,284684
0,165679
-0,092116
0,544560
0,816479
0,840428
-0,246386
0,439415
-0,252172
-0,188416
-0,521203
0,024470
-0,633191
-0,584771
0,664168
-1,211259
-0,334824
-0,543876
-0,054387
0,440239
0,078193
-0,089059
0,543132
0,152952
1,311785
-0,067423
0,951850
0,719661
0,749519
0,452367
-0,325829
-0,288970
-0,498038
-0,740966
-2,205394
-1,293694
-0,376411
-0,278123
0,006815
-0,087552
0,125703
0,038646
0,813743
-0,864083
-0,011776
1,008692
-0,681372
0,823487
-0,019022
0,378698
-0,065897
-0,052089
-1,381861
0,337612
-1,109727
-0,295384
-0,091942
-0,704746
1,048153
-0,258935
-0,321787
0,252308
0,096200
-0,573937
0,188377
0,879896
0,596068
0,273087
0,329579
0,014538
-0,239261
0,438644
-1,204932
-1,021709
-0,308453
0,139528
-0,934102
-0,520378
0,052271
0,509546
-0,963934
0,095924
-0,011826
0,910726
-0,256559
0,739394
0,628514
0,954045
0,212522
-1,294835
-0,083701
-0,252300
-0,792821
-0,949718
-0,818765
-0,396357
0,077960
0,140336
0,019179
-0,595627
-0,297563
0,091295
0,704421
0,208938
0,377204
0,737677
1,175068
-0,146182
0,040167
0,082665
0,146162
-0,487435
-1,131620
-0,581560
0,135368
-1,224240
-0,108778
-0,475391
-0,767459
0,144539
-0,678758
0,636095
-0,572273
-0,188735
0,780741
0,235324
0,530819
0,099898
0,745603
0,274100
-0,688943
0,435506
-0,208637
0,231638
-0,698582
-0,299236
-0,681034
-0,699584
0,123218
-0,704160
0,047090
0,534325
1,264856
0,941232
0,317058
1,218999
0,663689
0,627141
0,546198
0,086407
0,277646
0,194347
-0,317199
-1,451907
-0,115808
-0,191097
-0,141582
-0,151555
-0,703724
-0,655771
0,046508
-0,436971
1,233329
-0,240085
0,449133
0,898362
-0,166290
0,320806
-0,435222
-0,721180
0,256870
-0,382709
-0,068814
-1,414952
-0,306854
-0,894317
0,153718
0,350880
0,320570
-0,182902
-0,683794
0,029319
0,044134
-0,365775
1,159337
0,265436
0,545562
0,340539
-0,271993
0,193725
-0,255533
-0,508966
-0,561250
0,707699
-0,903054
-0,530443
0,073674
0,175223
-0,261216
0,087504
0,397133
0,419275
-0,507762
0,916505
0,408686
0,475565
0,555697
0,002554
0,673720
-0,803077
0,150202
-0,145712
0,341649
-0,966386
-0,521127
-0,590502
0,011585
-0,427018
-0,085573
0,218921
0,405911
-0,768570
0,544915
0,386752
0,774243
1,048352
0,238471
1,069653
-0,448044
0,319890
1,185366
-0,619426
0,294201
-0,601650
-0,219271
-0,633174
-1,718033
-0,624692
-0,479691
-0,487019
0,592393
0,193028
0,562476
-0,056151
1,087574
0,373448
1,481238
0,852318
-0,403630
0,262589
0,175513
0,174921
0,457063
-0,952001
-1,274366
-0,272651
-0,674276
0,106044
-0,697792
-0,280146
-0,909782
0,664557
0,759657
0,318418
0,404148
0,657294
0,026417
-0,994418
0,248346
0,048546
-0,314385
0,522920
-0,787764
-0,354220
-0,281660
-0,267019
-0,431216
-0,293863
0,238092
-0,020120
0,447983
0,725370
0,496625
0,638391
0,662582
-0,516033
0,499694
0,288157
0,663735
0,229742
-1,115073
-0,492538
-0,655952
-0,045009
-0,970331
-0,677670
0,121756
-0,137111
-0,703964
-0,000639
-0,486033
0,104957
0,674450
0,133139
0,736681
0,077848
0,238335
1,026823
0,322693
0,767576
0,768972
-0,175410
-0,287103
-1,028305
-0,046993
0,394903
0,191966
-0,036555
-0,437426
-0,079169
0,682253
0,701233
1,415168
-0,012867
-0,183454
-0,284253
0,183315
0,694369
0,287749
-0,009345
0,876816
-0,577303
-0,736320
-0,482331
0,293665
-0,446849
-0,120946
-0,860223
-0,034434
-0,472834
-0,043740
0,577178
-0,427613
0,805613
0,739523
0,908801
1,398341
0,925087
-0,579731
0,017029
-0,059700
0,154672
-0,842188
-0,122495
-0,678368
-0,378968
0,268409
0,225318
-0,454493
-0,375340
0,025359
0,840307
0,331406
0,829984
0,129112
0,270226
0,280020
0,093175
0,534072
0,188614
-0,153535
0,164559
0,046042
-0,878965
-0,277398
-0,717575
-0,705965
0,155515
-0,310576
0,160661
-0,596519
0,450880
-0,365580
0,038160
0,074064
0,103654
0,796815
-0,196540
0,911906
-1,582082
0,157346
-0,642621
-0,057230
-0,484764
-0,622108
-1,153700
-0,910455
0,270103
-0,077184
