Signal
0,258215
-0,342538
-0,155364
0,985314
0,614029
-0,596017
-0,006559
0,905971
-0,226834
0,098866
-0,504862
0,056760
0,100835
0,324897
-0,468928
0,129368
0,252456
0,097527
-0,194136
-0,042005
0,773070
-1,275846
-0,377129
0,325650
0,172873
-0,401860
0,196980
0,551965
-0,016737
0,747935
-0,124487
0,295715
0,173063
0,079208
-0,185539
-0,057750
0,638310
0,313128
-0,352282
0,410562
-0,540892
-0,616570
0,203616
1,184043
0,008207
-0,653477
-0,023948
-0,594269
0,297298
-0,866733
-0,207407
-0,087197
0,375935
0,747848
-0,087838
-0,191130
0,371068
-0,248530
0,221486
0,624259
-1,044429
-0,562999
-0,136691
-0,322731
-0,173891
0,347713
0,368920
0,243535
0,023116
-0,126128
-0,428559
0,183869
0,692243
-0,534358
0,013957
0,034922
0,053927
0,810819
-0,057263
-0,377019
0,384736
0,008075
-0,280344
0,197588
-0,511878
0,130701
-0,021387
0,393693
-0,921344
0,419038
0,302417
0,058352
-0,023578
0,454610
-0,219667
-0,527671
-0,022273
-0,553545
-0,837800
0,361244
0,926956
0,225940
0,225367
-0,211259
-1,353854
-0,704500
-0,598518
0,354803
0,306626
-0,177670
-0,834025
-0,275363
-0,125713
0,270386
-0,644030
0,186045
-0,231340
-0,015988
0,286411
0,194051
-0,194500
0,171585
-0,299160
-0,160750
-0,231836
0,701244
-0,051737
-1,127838
0,623550
0,201006
0,146985
0,052421
0,225914
-0,752093
0,060864
-0,179997
0,138994
-0,514782
-0,696520
-0,360753
0,310140
0,116527
-0,892604
-0,072857
0,399916
0,265138
0,145387
0,077734
-0,371621
0,420653
0,431023
-0,343481
0,580906
0,149554
0,063557
-0,887514
-0,035496
0,138983
0,331457
0,550128
-0,028299
0,422204
-1,362159
0,240173
0,117930
-0,300020
0,080950
0,158246
0,165089
-0,053122
-0,406969
-1,112769
-0,075847
0,323267
0,565357
0,728841
-0,146344
0,596993
-0,420442
-0,731458
0,480382
0,052156
-1,048512
-0,565003
-0,345264
-0,291324
-0,014808
-0,847687
0,789879
-0,293194
-0,036976
-0,495814
-0,741751
-0,065175
-0,285330
-0,370084
-0,546551
0,407659
-1,051977
-0,315247
0,555636
-0,441563
-0,359526
0,808534
-0,264077
0,341715
-0,152504
0,328089
0,495264
0,146075
0,327702
-0,089347
-0,460742
-0,068798
-0,585188
-0,142130
-0,105692
0,065125
0,332500
-0,979353
-0,472466
-0,312989
0,307123
1,016390
0,032649
0,319419
-0,375610
-0,694071
0,391671
-0,615379
-0,099680
0,216649
0,659991
-0,249287
-0,188283
-0,414122
-0,092782
-1,509647
-0,840284
-0,597625
-0,002516
-0,918265
0,826271
-0,304169
-0,613894
-0,111119
0,818701
-0,279042
0,557713
-0,057887
0,296850
0,128078
-0,138097
0,228913
0,066062
0,515246
0,235831
0,441773
0,376785
-0,596039
0,608886
-0,754435
0,144465
0,010657
0,381520
-0,503920
-0,714106
0,817610
0,538094
-0,153560
-0,513797
-0,045906
-0,364221
-0,937467
-0,813062
0,057145
1,017665
-0,280343
0,048387
-0,858682
0,647151
-0,341713
0,619128
1,041850
-0,051080
-0,015644
-0,160617
0,174126
0,177916
-0,950171
0,148760
0,364710
1,367218
-0,658536
-0,203557
0,273136
-0,472466
0,490689
-0,122766
-0,095724
0,058354
0,177031
-0,127016
-0,119943
0,292725
0,329905
0,333339
0,525427
-0,516827
0,071423
0,628405
-0,582555
0,007438
0,059684
-0,996360
0,359802
-0,188668
0,907947
-0,085027
-0,873292
0,376137
-0,647348
0,756190
0,681575
-0,921902
0,072660
-0,375788
0,169773
-0,447321
0,725623
0,245263
0,562979
0,331598
0,059409
-0,095714
0,489364
0,377766
-0,566868
0,525753
0,027382
0,522011
-0,520474
0,662611
-0,322746
-0,483082
0,187968
0,054169
-0,096757
0,907773
-0,066212
0,322175
-0,117665
-0,276617
0,445052
0,107497
-0,158538
0,223688
0,177524
-0,048002
0,865732
0,252014
0,091332
0,394808
0,577993
0,337871
0,662158
1,145844
0,289719
-0,012378
-0,239543
-0,084283
0,395110
-0,014038
-0,260863
0,124911
0,252959
-0,482916
0,451578
0,042921
-0,727599
1,019697
-0,451400
-0,034039
0,173406
0,652898
-0,384633
0,400093
0,167733
0,540816
-0,006578
-0,053370
0,510535
0,488871
0,634295
-0,005193
0,303322
0,773882
0,264442
-0,403845
-0,411841
0,718861
0,903366
0,492029
0,737753
0,318796
0,879014
-0,190915
0,486110
0,695646
0,574848
0,034736
-0,527607
0,364716
-0,437926
-0,671660
0,353065
0,572815
0,328999
-0,341287
-0,593010
0,144289
0,674435
-0,282088
-0,344077
0,036216
-0,419300
-0,445981
0,429892
0,851611
-0,076268
-0,228693
0,292149
-0,259343
0,212648
-0,447062
0,603630
-0,121084
0,795473
0,168185
0,196249
-0,147008
-0,034398
-0,142255
0,288038
-0,504806
-0,437314
-0,167371
-0,023268
-0,509258
0,217969
0,442399
0,458640
0,148588
-0,257156
-0,489984
0,489953
0,521059
-0,631772
-0,288325
-0,701929
-0,259214
-0,530549
-0,023969
-0,477122
-0,530089
0,259160
-0,998396
0,483848
-0,126285
0,796366
0,202043
-0,631020
0,161311
-0,160987
0,541741
0,442869
0,873315
0,029622
-0,589105
0,225260
-0,256245
-1,245714
0,395049
0,757373
-0,104060
0,375580
1,050611
-0,888786
-0,105639
-0,162141
-0,449040
1,031984
-0,453264
-0,634156
0,643187
-1,324016
0,122705
-0,787242
-0,328727
0,304916
-0,817794
-0,295250
0,726336
-0,118151
0,139164
-0,300226
-0,168673
0,743179
0,376241
0,099090
-0,265441
-0,962723
0,342941
-0,505305
0,500884
-0,259526
-0,042736
-0,231367
-0,363816
-0,284301
-0,808364
-0,253066
0,093444
0,130081
-0,372493
-0,121334
-0,267682
0,203697
0,553044
-0,596869
-0,946346
0,145196
0,716807
-0,156137
0,542564
-0,171408
0,388492
-0,673969
0,248879
-0,182251
-0,461869
0,467340
-0,233279
-0,214157
0,720547
0,035393
0,035706
-0,278501
-0,004448
0,168917
-0,286493
0,089288
0,163252
-0,353984
-0,296631
-0,476386
-0,433744
-0,122165
-0,151349
-0,380063
-0,325553
-0,052305
-0,329549
0,164609
-0,107165
-0,536603
0,220766
0,080867
-0,566094
-0,750023
0,594865
0,293902
-0,820440
0,293986
0,139509
-0,029552
-0,356202
0,419673
0,246123
-0,123816
-0,280071
0,910035
1,643744
0,362582
0,021759
0,012766
-0,209133
0,444195
-0,032919
-1,279216
-1,095524
-0,228119
-0,148605
-0,201271
0,001945
-0,110925
-0,266285
0,630914
0,723677
0,474437
-0,940809
0,265594
0,316061
-0,871691
0,325755
0,686071
-0,622959
0,090802
0,422604
0,270880
-0,720281
-0,193489
-0,395378
-0,212600
-0,724779
-0,478826
0,376259
-0,030199
0,228179
0,010541
-0,021833
0,401866
-0,557979
-0,537626
0,252737
0,011630
-0,411055
0,573056
-0,348499
-0,485541
0,612351
-0,254850
-0,655343
-0,683162
0,436553
-0,536897
-0,169239
0,684385
-0,105535
-0,283160
0,770635
0,070697
0,048026
0,844126
0,795669
-0,691535
-0,024593
-0,466406
-0,377702
-0,716274
-0,947508
-0,831254
-0,012102
-0,194780
-0,227425
0,475053
-0,824063
0,147382
-0,622490
-0,731956
0,142986
0,283296
0,454470
0,043793
0,047485
0,428831
-0,134892
0,352362
0,067287
0,031669
0,006764
0,355902
0,537130
0,477724
-0,359189
0,730912
0,762203
0,243852
-0,095605
-0,619624
-0,298498
-0,191709
-0,159175
-0,031270
0,223990
-0,375274
0,408167
0,958801
0,019124
-0,468215
0,060262
-0,304434
-0,603220
-0,449083
0,095839
0,754060
-0,143662
-0,215589
0,429241
0,062448
-0,526011
0,030690
1,216074
0,904330
-1,233060
-0,137141
0,044524
-0,279348
0,454383
-0,106396
0,117978
0,759441
-0,271871
-0,630748
0,917149
0,219502
0,437643
-0,033771
0,645505
-0,139102
0,399728
0,444651
-0,643130
-0,778228
0,406493
0,041394
-0,298524
-0,242406
0,619539
-0,206522
0,082698
0,394340
-0,509173
0,513295
-0,478582
-1,017303
0,179376
-0,706588
0,028329
0,030116
-0,409082
-0,486998
-0,315906
-0,077380
-0,096079
-0,850263
-0,856610
-0,854359
0,326590
0,195951
-0,496108
0,230579
-0,810598
0,413840
0,394723
0,405118
-0,279787
0,278061
0,056571
-0,206234
-0,329055
-0,846962
-0,189422
-0,862201
0,595710
-0,073032
0,654080
-0,021479
0,144697
0,392718
0,613697
-0,302856
0,786512
0,745210
-0,424540
0,244164
0,681333
-0,152312
-0,071113
-0,128730
-0,128021
-0,210618
0,352962
-0,906837
-0,114825
0,271941
0,168182
0,903505
0,065897
-0,140580
-0,467909
0,340244
0,299917
0,011411
-0,256590
0,585045
0,396373
0,259927
0,609084
0,639867
0,641555
0,593221
0,829149
0,198333
1,021234
0,641682
-0,316697
0,190500
0,678499
0,264361
1,087289
0,013497
-0,081498
0,076317
-1,386151
0,030532
-0,203160
0,667359
-0,305591
-0,075248
0,227989
0,649133
0,907356
-0,246784
0,199673
0,003898
0,056486
-0,061893
-0,405923
0,341719
-0,122500
0,160542
0,238939
0,299904
-0,153464
-0,179859
-0,648246
0,815550
0,115542
0,611718
-0,361189
0,554715
-0,084294
-0,378030
-0,637467
0,539208
-0,719406
-0,050837
0,145820
-0,293912
-0,384603
-0,195339
-0,450399
-0,118472
-0,323563
-0,763570
-0,129332
0,152541
0,862369
0,028578
0,285948
-0,876934
0,261918
0,185371
-0,045896
0,300857
0,207017
0,376502
0,615411
-0,107520
-0,533030
0,096482
-0,120647
-0,539160
0,343170
-0,918168
0,067363
0,384162
-0,454351
-0,696047
0,186238
0,560229
-0,310665
-0,301351
0,338702
0,468910
0,649721
-0,659104
-0,258925
0,033424
-0,154860
0,430227
-0,057216
0,051199
0,813161
-0,080920
0,100602
-0,879619
0,271669
-0,178646
0,626957
-0,143402
-0,255438
-0,122999
0,414611
0,683756
0,069933
0,179679
-0,351416
0,550128
-1,252485
0,300220
-0,199043
-0,991585
-0,316807
-0,209857
-0,592999
-0,653147
-0,027414
-0,303422
-0,302207
0,268247
-0,667487
0,958582
-0,506915
-0,072922
0,486668
0,025819
0,197322
0,502469
0,344150
0,050206
-0,594461
0,324168
-0,689440
0,039488
0,137260
0,038914
0,070944
-0,147754
-0,078966
0,277511
-0,401379
0,288774
-0,632371
-0,330335
0,326467
0,137484
0,158570
-0,319719
-0,660292
-0,004017
-1,405540
-0,314991
-0,134975
-1,515677
-0,978139
0,773193
-0,247164
-0,240526
-0,126689
0,274027
0,463469
0,127706
0,348257
-0,293506
-0,080668
0,863960
0,540163
0,052066
-0,303620
0,190169
0,179263
-1,223497
0,604310
0,331403
-0,468193
-0,150415
0,000673
0,014230
-1,137301
0,525873
-0,209748
-1,043010
0,312474
0,321509
0,078692
-0,678504
-0,089301
0,317997
-0,189016
0,701352
-0,178194
0,078159
-0,459428
0,834302
-0,851153
-0,599223
0,005435
-0,757555
0,202846
-0,776822
0,302004
0,407091
0,463576
0,251061
-0,521967
0,394993
0,465922
-0,168177
-0,586096
-0,391959
0,020673
-0,873048
0,354096
-0,388512
0,524917
0,487449
0,456848
0,484685
0,415908
0,387472
-0,857951
-0,586028
0,299084
0,293931
0,199941
-0,347430
0,246983
-0,265836
0,198523
0,775905
-0,143549
-0,255696
-0,145940
-0,755286
0,253960
0,474272
-0,601752
0,188337
-0,180850
-0,282735
-0,600593
0,049150
-0,779241
-0,316167
0,630024
-0,455713
-0,386577
0,648467
-0,487047
-0,142780
-0,161767
-0,757620
0,521757
-0,466508
-0,451576
0,518078
0,736456
-0,144700
0,192518
0,465160
0,314194
0,738144
-0,131470
-0,497856
-0,109778
0,933372
-0,602036
-0,120400
0,294050
-0,175971
-0,379529
0,490439
0,084541
-0,512570
0,507678
-0,210714
-0,931363
-0,328757
0,272538
-0,452245
-0,587571
0,012675
-0,194267
-0,315830
0,717563
-0,313773
-0,399610
-0,592633
-0,195078
0,358880
0,418139
-0,314443
0,339487
0,018038
-0,508560
0,560995
-0,024466
0,266296
0,010555
-0,763989
0,017664
-0,276603
-0,480308
0,450336
-0,167963
0,526956
0,197523
0,113872
-0,249169
0,007460
-0,004943
0,054454
0,779244
-0,176675
-0,032085
0,195701
-0,222758
-0,336207
-0,232946
0,743151
0,219776
0,000579
0,236482
-0,139631
-0,464622
-0,256354
-0,425077
-0,922141
0,146266
0,764765
0,654859
0,033590
-0,062500
0,569504
1,012029
0,373342
0,459268
0,329516
0,663139
-0,222727
0,081158
-0,169172
0,395251
0,636286
0,536461
0,047876
0,219390
0,432231
0,177567
-0,572281
-0,980269
-1,175695
-0,974088
-0,699074
0,115290
0,582864
0,111312
0,040653
-0,797449
0,808002
-0,045152
0,941663
0,279506
0,834546
-0,546880
-0,082763
-0,073042
-0,041179
-0,231858
0,647667
-0,307055
0,344898
-0,449957
-0,039661
-0,970479
-0,136336
0,935969
0,257784
0,239837
1,152473
0,033630
1,068063
1,069454
-0,442252
-0,205594
-0,433233
-0,051230
-0,061223
0,247781
-0,369826
0,143785
0,113541
-0,572972
0,541092
0,011380
0,329207
0,191321
0,450610
0,394143
0,262692
0,681210
0,119073
-0,697877
-0,018394
0,000946
0,718008
-0,119321
0,356335
-0,496443
-0,543043
-0,233188
-0,973486
0,447334
0,270568
0,305925
-0,485815
-0,594663
1,147681
0,331429
-1,583420
0,898680
0,638667
0,150239
-1,067824
-0,471007
0,365979
0,507031
0,285422
0,007114
-0,707491
-0,482587
-1,471083
0,606108
1,048682
0,675517
0,159311
-0,179724
-0,146175
-0,668726
0,041721
-0,020849
0,023192
-0,260636
-0,327244
-0,509193
-0,012564
-0,370393
-0,148263
-0,444740
0,902332
0,226976
-0,366042
-0,656911
-0,628423
0,293143
-0,621535
0,610568
-0,061595
0,657699
-0,222592
-1,121040
-0,126627
0,248939
-0,056577
-0,544171
0,082334
-0,291463
0,697811
0,445683
-0,967053
-0,947243
-0,455348
0,256592
-0,257463
0,409172
-0,011199
0,682047
-0,381813
-0,178866
0,146355
0,400093
-0,317577
-0,860338
-0,254593
0,334599
0,436121
-0,676853
0,395274
-0,107685
-0,524006
0,240740
-0,288589
-0,325587
0,318874
-0,024386
-0,325017
-0,088999
-0,022904
-0,682959
0,154136
0,172987
0,069496
-0,739571
0,360361
0,123333
0,213941
0,050172
-0,343034
-1,119302
0,349915
0,797364
-0,220316
0,091532
-0,080050
0,108200
-0,533454
-0,060702
-0,152368
0,005456
0,143678
-0,547949
0,313073
-0,528073
-0,217245
-0,191994
0,727585
-0,309853
0,480268
-0,892207
-0,012283
-0,043101
0,545049
0,316113
0,540385
-0,560195
-0,387713
1,325075
-0,415322
-0,201280
-0,138600
0,360481
0,465220
0,586062
-0,354320
0,392702
-0,402562
0,389752
-0,798187
0,450784
-0,081878
0,815256
0,126743
0,412984
0,024257
0,540811
0,588636
-0,834538
0,347038
-0,088320
-0,027375
0,254788
-0,549942
-0,593657
-0,278515
-0,363972
0,149779
0,116405
-0,528255
0,564226
-0,101908
0,082560
0,105914
0,414792
0,479401
0,228770
-0,366678
0,247335
-0,874152
0,171110
0,765779
0,292169
0,425549
0,146365
-0,630031
0,174215
0,401002
0,630897
-0,798254
0,666342
-0,380838
-0,590186
0,331746
0,173445
0,202403
-0,981866
0,634119
0,427048
-0,561754
-1,237507
0,549928
0,672987
-0,415410
0,089578
-0,109302
-0,833846
0,199888
0,852001
1,095913
0,547053
-0,384293
-0,106147
0,628345
-0,332091
1,014445
-0,352975
1,214770
0,120296
-0,413883
-0,000961
-0,444506
-0,224865
-0,307198
0,289532
0,140429
0,125239
0,267584
0,579592
-0,245839
0,832127
0,698445
0,612309
-0,586557
0,239476
-1,002724
-1,202815
0,254847
0,456062
0,238440
0,739670
0,968773
0,228971
-0,179052
0,400289
-0,470725
-0,424995
0,300952
0,618859
0,746280
-0,354338
-0,604358
0,259735
0,102909
0,199138
-0,303651
-0,224275
0,107503
0,000309
-0,279093
-0,209607
1,299111
0,074988
-0,078948
-1,151093
-0,004734
0,805062
-0,827190
1,112891
-0,259659
0,344695
-0,184650
0,307334
-0,341530
-0,054520
0,130033
-0,481091
1,101715
-0,266299
-0,411534
0,050173
0,125627
0,105499
0,239916
0,293995
0,429268
-0,285256
0,158234
1,026646
1,058532
0,439301
1,164585
-0,360400
-0,616340
0,038295
-1,302062
-0,317618
-0,267208
0,141383
-0,904448
0,124301
0,213434
-0,146333
-1,131789
-0,247933
0,122477
0,883443
-0,045416
-0,404473
0,119121
0,489374
-0,032162
-0,149497
0,691242
0,595101
0,624882
-0,340243
-0,234552
0,451425
0,853467
-0,323000
-0,045366
0,094522
0,098437
0,321795
-1,068828
0,125149
0,711802
0,279810
0,563334
0,113376
0,239135
0,085427
0,001579
-0,027417
0,255790
-0,397469
-0,349420
-0,811793
0,853660
-0,053003
0,216191
0,108334
-0,064417
0,251889
0,285899
-0,666404
-0,428953
0,052479
0,004558
-0,392310
-0,170885
0,257129
-0,284153
0,115394
-0,036839
0,189238
0,916212
-0,058839
0,284702
0,271993
-0,492126
0,304865
0,188784
0,581043
-1,283552
-0,377070
0,071051
-0,222814
0,059330
0,019616
0,213228
0,361144
-0,907503
-0,532076
0,262115
-1,001842
0,403872
0,719194
0,714453
-0,261492
-0,275165
-1,062695
-0,390903
0,426642
-0,542867
-0,153559
-0,760097
-0,387727
0,305128
0,010706
-0,027800
0,412249
0,393043
-0,125558
0,089183
-0,886750
0,785562
0,383815
-0,702575
-0,116190
0,309568
0,028615
-0,310727
0,250482
0,240615
-0,763807
0,115549
-0,278197
0,069859
0,769456
0,146710
0,676735
-0,367811
0,299439
0,483515
-0,194893
0,687403
0,180715
0,051853
1,280664
-0,525857
1,160904
-0,538889
-0,039299
-0,452804
-0,446362
-0,713771
0,829961
-0,438288
-1,277251
0,931280
0,358579
-1,277150
-0,903285
0,301122
-0,081080
0,287480
-0,126713
0,297586
-0,044369
0,180792
0,285723
0,347652
0,647702
-1,082349
-0,821676
-1,385210
-0,059325
-0,021497
-0,407193
-0,117632
0,652738
-0,018510
0,738219
0,095262
0,205872
1,194695
0,290338
0,105615
-0,768093
-0,352531
0,074198
-1,048659
1,230936
1,218164
2,135848
-0,231096
-0,841775
-1,214033
-0,309667
0,625268
-1,263095
1,383867
-0,785293
1,415633
0,694432
-0,389399
1,520359
-0,446319
0,601770
1,129239
1,277895
-0,271783
-0,940955
-1,183293
-0,561680
-1,281779
-0,805836
-0,118684
-0,248664
-0,565162
1,095432
0,404183
-1,154635
-0,709798
-1,279033
0,251477
-1,081097
-0,019370
0,350218
-0,106730
-0,983269
0,579813
0,508693
2,316960
0,041460
0,625537
-3,137389
-0,847332
1,648316
1,121603
0,400181
-0,579711
0,619123
-1,174811
-1,106665
2,045529
0,316391
1,935918
-0,571169
-1,956704
-1,773994
-1,909568
-0,662366
-0,044825
-0,380036
-1,403208
1,597685
1,577260
0,812250
0,179859
-0,389989
-0,854372
0,297571
0,475536
0,838697
1,163861
-0,121340
-0,066884
1,504735
1,263974
1,075684
0,445733
0,475400
-1,292772
0,160970
-0,653408
-1,423100
1,138270
0,423591
0,192242
0,500042
2,023039
-0,600806
-0,625489
1,318436
-0,147348
1,208223
0,611406
-0,653331
0,683097
0,103337
-1,166088
-2,962861
-0,843350
-0,298741
-0,450705
1,705104
1,186887
-0,462484
-0,134143
0,004151
1,351994
-1,076355
-0,243905
-0,644940
-0,192902
0,095636
-0,003012
0,375817
-0,550533
-1,300436
-1,509273
-0,648413
-0,207498
-0,565454
-0,736908
-0,218770
0,956947
0,015386
-0,729735
1,260426
-0,519966
2,071411
3,276609
4,605935
-0,105564
-0,105956
0,811444
2,097545
0,453028
1,982724
1,332343
-0,042757
-0,713206
-0,113675
1,055662
-0,345021
-1,006429
-2,663411
-1,224779
-1,632947
0,319386
1,418962
-0,273790
-1,287217
-1,472591
0,334613
1,764645
1,884808
-2,201139
-1,943408
0,626856
0,484982
1,396228
1,492304
0,629902
0,967756
-1,798424
-1,670220
0,420590
-0,991237
-0,137261
2,259520
0,925653
-1,303565
-0,021607
0,379068
-0,841706
1,922176
2,033427
-4,001460
-2,106164
-1,395529
0,039337
-0,707108
1,656347
-2,211367
-1,278964
-1,103439
0,846212
1,931723
2,181734
1,051518
0,601942
2,100557
-1,909583
-0,987751
0,032447
0,545386
-2,773910
-2,903548
-1,857431
0,497885
-0,429196
-0,978812
2,809565
0,337541
-1,788088
-0,876947
0,519372
-0,433948
-2,334798
-2,093975
1,846173
0,889282
0,115640
-0,421439
1,183440
4,081196
3,164236
1,671619
0,148304
-2,121688
-2,169077
-1,312258
-4,382125
-0,747328
0,710283
0,179689
1,801805
1,693974
-1,612026
-0,065725
-1,438522
1,660303
1,108507
0,703005
0,398053
1,119178
-4,237886
-1,013696
1,406635
-0,114285
0,529094
-0,728159
4,434420
0,536242
-0,044304
-0,111000
-1,061906
-0,607082
-1,534792
-0,241726
0,240528
-2,706648
-1,873768
0,062204
3,996691
2,652783
1,173801
-0,553599
0,605206
-0,521896
0,934373
-0,920014
-1,517269
-0,026831
-0,520131
-1,769299
-0,502292
1,815369
0,689441
-2,623554
-0,459998
-0,776337
1,738493
-2,104054
-2,115359
-0,210458
-0,407928
0,564778
-1,097134
-0,962801
-0,847716
1,474671
1,723732
-0,816738
0,118378
2,538635
-1,542370
1,408252
0,093013
-2,968055
-0,303777
0,940362
-1,479580
2,275354
2,281581
-0,881498
3,214789
0,332280
0,174449
-0,872195
-1,390570
-0,950132
0,137104
1,014740
0,794927
1,781314
-0,192026
0,132994
0,615991
0,968579
1,554656
-0,284266
-3,192976
-0,582689
0,101587
-1,613888
-2,245896
-1,683912
-1,249282
-2,507728
-2,580548
0,514229
-2,038130
1,597561
-0,135138
1,438073
1,187017
0,954842
0,398156
0,987165
-0,129891
-0,511582
-0,411869
2,861943
0,332791
-1,479128
0,348162
2,352147
-0,910469
0,432426
-1,652236
-1,450012
1,358902
3,141291
0,186637
-1,078380
1,011340
-0,173747
-0,353631
-0,486514
-1,872934
0,030931
-0,932303
0,057593
2,354636
5,014267
2,219469
-0,168635
-0,292498
-3,465306
-1,471040
-0,853776
-0,164733
1,662257
-1,406422
-0,761646
-0,701959
-2,981114
-1,900415
0,324111
0,608513
-1,130690
-2,363775
0,015320
-0,239130
-2,910349
-0,550677
0,540415
-0,756452
-0,464910
2,018192
2,567274
-2,706794
-1,478792
-1,723351
-2,462343
0,901596
-0,286262
-1,228933
-0,675916
1,216697
1,196775
2,161747
2,742080
4,089403
1,236444
-4,614199
-1,136214
0,170152
1,500428
2,551094
3,487660
-1,784930
-2,132899
0,120482
-0,784705
3,562301
3,777745
1,559746
-1,500563
-0,901130
-2,714273
-0,977555
-1,282303
1,597350
0,807169
0,200673
1,703827
0,353502
-3,688533
0,719752
1,553463
1,418561
2,081439
1,466203
0,253762
-1,307187
-1,787905
1,642441
-0,017367
-0,019208
0,405408
-2,535151
1,491740
3,458224
2,145873
0,048499
-2,662920
-2,251007
-0,336510
-2,712181
0,852474
1,698048
1,874618
0,059684
-2,008073
-2,369202
0,571401
-0,069763
-0,835942
0,424216
-1,093300
-2,218911
-3,580201
0,913405
3,225935
2,729207
2,507574
1,509658
1,375778
-1,886391
-2,813755
0,770764
1,522476
1,061670
0,320514
0,176415
1,003025
-2,555024
-1,798997
-0,134317
-0,080476
-1,355131
0,594722
1,105000
3,571755
2,303084
4,183625
-0,703826
-0,326579
0,069409
0,313691
-1,570663
-1,825370
-1,928734
-3,567312
-2,035789
0,548794
1,790608
-0,245793
1,544636
-0,096712
1,056039
-0,365706
1,927413
-0,875469
1,409971
1,208340
1,631533
-0,381194
0,014099
-1,988687
-1,122272
-1,236795
0,008950
-2,430536
-3,783079
-0,505204
-1,277600
-0,855169
-0,525728
2,011577
2,131753
0,885563
0,715824
-3,208869
-2,863979
-1,236648
-2,432974
-2,374112
-1,791399
1,448165
1,964433
2,283116
2,058507
-0,521800
2,437397
2,614489
0,287636
-1,186263
1,494441
-0,127230
-3,553900
-0,835126
-0,018856
-0,285752
0,481828
1,040329
2,026693
-0,580759
-1,356643
0,194988
-2,182863
0,114926
-2,395145
-3,372331
1,785726
-0,959394
-3,218539
-3,062120
-2,470397
1,012246
1,757078
1,451969
-1,644862
4,689242
3,583001
0,256029
-0,200618
2,065788
3,073480
0,904822
3,745947
2,279022
-1,760278
-1,267990
-2,597227
-3,970477
0,126327
1,444478
0,615356
-2,111476
-1,224576
-5,690663
3,494669
0,611251
0,317261
1,224593
-1,838931
0,781606
0,962211
0,760032
-0,402871
-1,289354
0,825143
0,863140
3,695246
3,389210
-0,199365
2,503411
2,440874
-1,150283
1,987457
0,876576
-2,231302
-3,432106
-1,899648
-2,497328
-0,027173
-1,297086
-1,657209
-0,719444
0,314844
-0,008659
3,529916
2,360471
-2,226065
-2,682939
-1,766859
-0,423371
0,753511
-2,647758
-2,795579
1,130954
0,811529
-1,865419
-1,418037
-1,127124
-1,224472
2,186887
0,994531
3,453170
1,115094
1,747714
-0,789526
0,392817
2,947794
2,176287
2,063375
-0,437966
0,908441
1,034546
0,658806
-1,717506
-1,544794
-0,341100
-0,946015
1,108091
0,864866
1,198333
1,648214
0,618376
-0,977567
-2,279398
-1,782843
0,872871
1,327608
0,967616
-0,524948
-1,757665
-0,290567
-0,786917
-0,070730
1,177982
2,900479
1,618150
1,377566
-1,030857
-3,415533
-1,739082
-2,868000
-4,115223
1,153292
-1,233816
1,157338
-0,786422
2,123127
1,560456
0,599132
1,777065
-1,115599
-1,663701
0,966686
-1,312297
0,183010
0,334829
-1,914253
-0,467501
-0,442245
-1,018044
0,074392
-1,651903
-2,500738
0,385793
-1,895857
-0,890315
0,276210
3,130289
0,977528
1,601133
1,481223
1,128733
0,560797
-1,128711
-1,873665
-1,972025
-1,621595
-0,104692
0,763676
1,912866
0,642384
0,816576
0,500779
-0,622321
-0,247377
1,701187
-0,663419
-3,082891
-0,485859
1,336581
0,865801
0,552332
0,346517
4,574983
2,051879
-0,749419
0,859967
2,958684
-1,127119
-2,831646
-2,557212
-0,003116
0,024182
-0,397893
0,488736
-0,171479
-0,782671
0,867986
1,531041
1,575879
0,116723
2,050387
0,483989
-1,397223
-1,937952
-1,903148
-0,574133
-0,455722
0,372790
-0,579186
-0,342566
-1,549770
0,205113
-0,693973
0,144013
0,210444
-0,234262
-1,485756
0,291074
-1,460603
-0,383854
0,816438
-0,755136
2,793259
0,307982
2,614912
0,652129
-1,113827
0,479691
-0,339678
-0,733234
-0,180397
-1,665068
-0,917515
0,474621
1,717376
0,800339
-1,255240
-0,989954
1,035467
0,501708
0,243566
-1,038709
0,380637
1,768003
1,185298
-1,212642
-0,295485
0,722505
0,075528
1,260911
-1,315790
-0,555656
-1,082313
-0,972378
-0,223088
1,003075
1,521420
1,866837
-0,097824
-1,586131
-0,082826
0,839346
-0,103846
0,857017
1,124776
0,168447
0,289846
-1,927436
-0,690032
-0,593553
-1,573206
-1,456455
-1,735169
-0,230189
0,169590
0,867559
2,190311
0,889231
-1,111123
-1,416934
1,606381
0,970501
0,751267
-0,163009
0,194371
-0,506240
-0,821816
-0,234204
-0,255509
0,176073
0,676773
-1,213034
-0,804703
-0,730783
2,288132
0,699492
0,106543
1,416168
0,470121
-0,017080
-0,052305
-0,082283
0,593889
-0,573667
-0,507382
-1,657591
0,225819
-0,880215
-0,947006
0,725688
1,302481
-0,633918
-1,431735
-0,390497
-1,435705
-2,999727
0,215108
-0,568037
-1,248642
-1,360432
-0,483558
-0,351830
-0,111939
0,610204
0,224356
1,444890
-0,069030
0,299170
-0,374252
-0,643713
1,080873
0,371414
-0,114190
-0,713020
0,226022
0,041856
-0,962162
-1,320689
-0,384239
-2,240715
-0,901209
0,891458
0,086667
0,171329
-0,410377
-1,062275
-1,118323
-0,229862
1,061353
2,099071
-0,795776
0,929790
-0,312716
1,521720
1,110237
-0,517451
-1,459608
0,591061
0,833977
-0,012963
-0,206108
-1,083029
-0,048318
0,599539
0,108552
-0,132980
0,840985
2,439513
1,234557
-0,025789
0,849798
0,732342
0,107955
0,173883
-1,763766
-1,109135
-2,151115
-0,362734
0,506242
1,114391
0,153568
-0,658888
-1,922597
0,346338
0,244980
-0,019131
0,647899
1,007493
-0,378033
0,248959
-0,680086
0,528164
0,626936
0,739160
0,087550
-0,227072
-1,682790
-0,432343
0,533469
0,096889
1,125342
0,233734
0,986550
0,075621
-0,119311
-1,176510
-2,129390
-1,455618
0,257328
0,925265
-0,294746
0,263140
-1,183139
1,016903
2,055388
0,961602
1,590792
-0,058928
0,466505
0,238613
-1,461316
-0,181483
1,389037
0,143981
-0,806004
1,244524
1,264427
0,483199
-0,425474
-0,394927
-0,930116
-0,099248
-0,737259
-0,528897
-1,647413
-1,267381
0,307019
0,480964
-0,241610
1,383964
0,240672
0,778042
0,392928
1,469780
-0,291883
0,211873
-0,367638
0,281023
-0,898826
0,006774
-0,163341
-0,022841
0,254923
-0,216256
0,355189
0,438147
-0,283520
0,708604
0,346342
-0,575814
0,104859
0,942578
0,393578
0,262135
-0,071213
0,012411
-0,356178
-0,244257
0,179545
0,020629
0,044243
0,036309
0,293112
-0,100770
0,163697
0,181069
-0,090697
-0,918867
0,160737
-0,474257
-0,087317
-0,372394
-1,227812
-0,415488
0,027564
0,746338
1,247033
0,571475
0,219373
0,163830
-0,212613
-0,605476
-0,066981
0,355923
0,052099
0,954524
-0,592411
0,404366
0,156996
-0,652794
0,230285
0,481692
0,320157
0,301945
-0,043786
-0,144372
0,069382
-0,506938
-0,852796
0,392627
-0,725223
0,777341
-0,210774
0,372246
-0,311124
0,851720
0,402637
0,736349
0,366087
1,546170
0,482834
-0,840028
0,617019
0,880881
-0,288223
0,273095
-0,378705
-0,530065
-0,203432
-0,933916
0,188524
0,263537
-0,772593
0,462101
-0,165065
0,628260
-0,117125
-0,254142
0,458275
0,625978
-0,437102
-0,105415
-0,423523
-0,255967
-1,093927
0,052003
1,146879
0,997018
0,007668
-0,070231
0,712558
-0,139917
-0,101938
-0,814390
0,630145
-0,196272
-0,105164
0,372683
-0,235671
-0,645987
-0,349660
0,778067
-0,173124
-0,373695
0,626121
-0,162857
0,575695
-0,605149
0,966579
-0,114265
-1,429749
0,120664
0,000453
-0,822318
0,042816
-0,416013
-0,518218
-0,625570
-0,231376
-0,377958
0,305529
-0,297174
0,753783
-0,119792
0,230678
0,107446
-0,633657
-0,501649
0,514982
-0,180704
0,424177
-1,083162
-0,305971
0,339061
-0,099156
0,348850
0,840810
-0,151654
0,360430
0,049348
0,235248
-0,085910
0,756659
-0,016248
-0,562169
-0,148700
-0,796569
0,585405
-0,068944
0,625074
0,210170
-0,015377
0,236003
-0,726836
0,007860
0,069575
0,095861
-0,014228
-0,271310
0,919833
0,571365
0,109956
0,596068
0,084181
-0,403490
0,732955
-0,014818
0,050501
-0,260507
0,246029
-0,001721
0,325971
-0,269963
0,033564
-0,170098
-0,066372
-0,355504
-0,299467
-0,240132
-0,538613
0,018695
0,940983
-0,870478
0,076116
0,340795
0,090400
0,368349
-0,142454
0,615864
0,315536
-0,336562
0,671512
-0,109246
0,224147
0,525785
0,943798
0,514580
-0,178703
0,445420
0,217754
0,166836
0,092245
-0,132488
-0,213474
0,093744
-0,810389
0,652293
0,312320
0,420233
-0,079379
-0,221594
0,772645
-0,168697
0,046841
0,647306
-0,326873
0,320144
0,033085
0,528203
0,527791
-0,334844
-0,353063
0,532886
-0,023077
-0,342048
0,748582
-0,495584
-0,291167
-0,057635
0,724036
-0,689419
0,134755
-0,344875
0,154732
0,053444
-0,423829
0,340535
0,055830
0,452306
0,927621
-0,195977
0,425248
0,086838
-0,152107
0,214758
0,044731
-0,614623
-0,257508
-0,161313
0,335418
-0,519815
0,020855
0,549014
0,353031
-0,000856
-0,258415
-0,946152
-0,343596
-0,320499
-0,374345
0,261125
0,625187
-0,046967
-0,031540
0,483277
0,302571
0,099185
-0,671721
-0,018565
-0,175329
0,050954
-0,373645
0,214100
-0,151667
-0,753750
0,577278
0,893579
0,663599
0,395194
0,482512
-0,594192
0,326978
0,100883
0,378327
-0,340456
-0,276154
-0,042204
0,519126
0,981386
-0,031803
-0,849165
0,319131
-0,415215
0,572207
-0,633289
0,433266
0,274017
-0,481866
0,221401
0,120297
0,891233
0,326138
0,429834
0,128133
-0,582235
0,395824
0,161659
-0,628219
0,019997
0,001567
0,288425
0,571960
0,038669
-0,202058
0,123147
-0,529085
0,876640
-0,093939
0,424570
-0,010292
0,086184
0,390431
0,415105
-0,305546
0,664465
0,025249
0,218750
-0,099857
0,073129
0,335203
-0,257875
0,802231
-0,261837
0,258957
-0,171847
0,570471
0,064585
-0,111086
0,014258
-0,364723
0,465906
-0,107525
-0,527950
-0,914665
0,435303
-0,568381
-0,064385
-0,192224
0,153449
0,412230
0,172512
0,182315
0,157687
0,339788
0,343591
-0,040288
-0,086320
0,407518
-0,913652
-0,011630
-0,951627
0,183686
-0,295671
0,330941
-0,102274
0,275561
-0,662162
0,413987
-0,484412
-0,376703
-0,810360
-0,312577
-0,354053
0,086280
-0,229188
0,489756
-1,531184
-0,424708
1,360221
-0,259169
-1,222399
0,932483
0,503690
-0,758996
-0,546899
0,288318
-0,738739
-0,621687
0,137659
0,251388
0,401188
-0,283173
-0,262691
0,484887
0,309140
0,313371
-0,797856
0,862572
0,217745
-0,445134
-0,352537
0,290168
0,448091
0,248801
0,470247
0,095583
0,760910
1,016156
0,612778
0,200313
0,037302
-0,416195
-0,590979
0,612164
-0,687479
0,061746
0,144211
-0,056043
-0,587374
0,016919
-0,046744
-0,847339
-0,591063
0,487211
0,321021
0,675463
0,294917
0,360536
0,491397
-0,474128
0,175745
-0,367014
0,187531
-0,806357
0,351809
0,597367
-0,132455
0,216263
-0,035739
0,294530
0,295292
0,214272
0,827299
-0,883351
0,664863
0,774757
-0,342193
0,036430
-0,382558
-0,694638
-0,046314
0,222806
0,775872
0,156476
-0,048929
-0,083810
0,939006
-0,249734
-0,462544
0,161095
0,418692
-0,054411
-0,063493
0,393620
0,269147
0,647107
-0,087490
-0,405977
-0,161890
-0,480404
-0,539598
-0,335627
0,449651
0,764569
0,199843
0,501466
-0,099551
-0,096732
-0,573542
-0,274660
0,400866
0,268579
0,478461
0,516600
-0,060362
-0,565169
-0,448091
-0,634425
-0,215674
0,470693
-0,677202
0,238278
-0,275596
0,566999
0,158921
-0,581053
0,444880
0,071693
0,060440
-0,020728
0,505422
-0,384000
-0,154313
0,500826
0,105559
-0,161054
-0,880664
-1,097379
1,099034
0,165328
-0,567773
-0,782653
0,912710
-0,198101
0,838093
0,728839
-0,703645
0,864468
-0,438583
-0,472368
-0,225598
-1,015194
0,276217
0,247831
0,150612
0,585496
-0,434168
0,054689
0,990403
-1,219613
0,354406
-0,242042
-0,255252
-0,342725
-1,116310
-0,382911
-0,489198
-0,211158
-0,386278
0,492558
-1,019837
-0,032346
-0,030309
-0,418837
-0,382168
0,593427
-0,607332
0,081656
-0,230927
-0,142511
-0,623807
-0,546051
-1,022785
-0,061954
0,419315
-0,252908
-0,069679
0,934015
0,347492
-0,124259
-0,820846
-0,638666
-0,079336
0,397289
-0,316469
0,313031
0,560558
-0,075114
-0,688900
1,116348
0,317884
0,609038
-0,082373
0,055034
0,174141
0,084295
0,179452
0,569156
-0,046336
0,497716
-1,195209
0,102069
0,467875
0,385126
0,477404
0,777326
0,324258
0,031791
0,277754
-0,230582
0,616428
-0,505735
-0,025272
-0,201562
-0,335235
-0,046675
-0,924343
0,050153
-0,274164
-0,043784
0,371966
-0,133729
0,026004
0,038175
-0,398889
-1,264271
-0,018975
-0,407965
0,598483
0,006679
-0,500908
0,895061
0,436659
-0,885506
-0,334266
-0,050178
-1,418700
-0,088876
-0,546916
-0,595285
0,925129
-0,041074
0,238823
0,789590
-0,020349
-0,058186
0,380459
-1,081494
0,255884
0,021195
-0,152554
-0,059535
-1,007528
0,734712
-0,373885
0,172122
-0,320210
0,077487
0,168505
0,162166
0,019468
0,031757
-0,090772
-0,243675
-0,257794
0,480842
-0,280225
0,134777
-1,004983
-0,562958
0,328505
-0,133972
-0,005047
0,038246
0,162997
-0,694278
-0,356395
-0,266233
-0,192204
-0,025450
-0,664336
-0,049226
0,103775
0,409056
-0,434132
0,464655
0,629364
-0,143571
0,099092
0,195459
0,695524
-0,751006
0,043106
-0,445153
-0,540299
0,070565
-0,025041
0,372854
0,113894
0,793106
0,105401
0,740745
0,744908
0,198499
-0,743212
-0,461883
-0,805252
-0,245282
0,417857
-0,312110
-0,156456
0,149990
0,270102
0,004174
-0,078752
-0,465563
-0,134601
-0,541336
-0,620074
-0,269541
0,160566
0,352252
-0,779411
-0,196663
0,217087
-1,438656
0,548437
0,228773
0,092455
0,933215
0,081977
-0,147824
-0,494761
-0,148421
-0,673791
0,118011
-0,032102
0,342614
-0,237596
-0,273277
-0,491009
0,352877
0,454341
0,140011
-0,196676
-0,723882
0,413803
0,519441
0,607230
0,330774
-0,902044
0,572839
0,037333
0,517666
0,025023
-0,108869
0,268744
0,383035
-0,657780
0,039246
-0,307248
0,118159
0,134901
-0,140011
0,012978
-0,197689
0,419481
-0,300234
-0,160457
-0,208349
0,280370
0,214277
-0,117479
1,076005
-0,853279
0,458145
-0,103653
-0,247568
0,662596
0,000440
-0,921023
0,257480
0,017558
0,334917
0,626344
0,334235
-0,625280
0,239902
-0,014089
0,135781
0,087898
0,126617
1,423582
-0,223324
0,580503
0,563992
-0,518021
0,824369
-0,090680
0,151590
-0,229701
-0,475774
0,473609
0,282429
-0,089410
0,090812
-0,441017
0,160866
-0,086797
0,643029
-0,172845
-0,293758
0,213160
-0,095348
0,697970
-0,167845
-0,329086
0,107934
0,460202
0,277675
0,246920
0,155601
-1,053906
-0,842200
0,335401
0,349721
-0,443023
1,177387
-0,395645
-0,134283
-0,984525
0,022232
-0,231965
0,317696
-0,748916
-0,318672
0,055483
-0,796465
-0,366362
0,905522
-0,448185
-1,264970
-0,287904
-0,218204
-0,789805
-0,037012
0,109229
-0,377335
0,143608
-0,083181
-0,144388
0,159458
-1,314820
-0,274942
-0,379257
0,263992
0,091817
0,013296
0,457453
-0,068259
0,344329
0,127106
0,424171
0,275768
-0,444552
0,624301
0,837996
0,078552
0,618518
0,526814
-0,200501
-0,549444
0,756290
0,378027
1,278394
-0,037230
-0,208201
0,756261
0,039877
0,003516
0,343521
-0,428998
0,113384
-0,416384
0,966505
-0,000065
0,810867
0,003588
0,138944
0,000396
-0,734099
0,883194
-0,280843
0,292866
0,403431
-0,150196
0,255694
0,401578
-0,442946
0,569051
-0,254310
-0,306432
1,007449
-0,904823
0,345687
-0,381985
0,026390
-1,470441
-0,956453
-0,869869
1,122955
0,461349
0,113910
-0,419893
0,020075
-0,284931
0,001857
0,178316
-0,578280
-0,378079
0,378071
0,001496
0,629154
0,106440
0,394746
0,013184
-0,712630
0,178500
-0,362898
0,058160
0,373508
-0,327775
-0,041281
0,099597
0,855427
-0,836765
0,208435
0,574631
0,139019
-0,077716
-0,686240
0,301922
0,143977
-0,488567
0,126185
-0,143909
-0,102083
-0,337270
1,159709
-0,706120
0,227900
0,296681
-0,606513
0,939003
-0,003969
0,442978
-0,275264
-0,491587
-0,499417
0,108356
0,499568
0,034303
0,076706
-0,018357
-0,531244
-1,419188
0,872823
0,418208
-0,324060
-0,760973
-0,284151
-0,017561
0,376768
-0,534230
0,313490
0,081012
-0,261148
0,087122
0,831186
0,078605
-0,184705
-0,457888
-0,501635
-1,030119
-1,148926
0,508428
0,460988
-0,159482
-0,608000
-0,655166
-0,362347
-0,178529
-0,662249
-0,507706
-0,109602
-0,111075
-0,083140
0,222660
-0,050782
-0,427843
-0,502248
-0,831959
-0,401858
0,623184
0,392921
-0,085681
0,476062
-0,166731
0,348239
-0,196963
0,660398
-0,243304
-0,167408
0,861485
0,183409
0,305195
-0,310664
-0,335876
-0,123841
0,115556
-1,186098
-0,750438
-0,481622
-0,164885
0,172143
-0,890567
0,511878
0,316466
-0,971318
-0,111240
-1,125316
0,111352
-0,113690
0,176776
-0,222702
0,270909
-0,767896
0,354576
-0,802941
0,050560
-0,735767
-0,123524
-0,244591
0,534174
-0,510137
0,374134
0,134936
-0,454242
0,044925
0,583912
0,637868
-0,260300
0,495228
-0,722427
0,573897
-0,144670
-0,742931
0,061713
-0,452509
-0,262137
-0,626531
-0,334182
0,713865
0,253817
0,248750
0,141237
0,362063
0,175633
-0,395595
0,899002
-0,367467
-0,667198
0,369300
-0,124126
0,483638
-0,714340
0,334685
-0,832883
-0,389248
0,365808
-0,572911
0,272674
0,506069
0,218894
-0,128983
0,494202
1,104504
0,747858
-0,107889
0,030218
0,768628
0,162537
0,240216
0,602503
-0,745721
0,506048
-0,166284
-0,230390
0,139703
0,419361
0,009379
-1,021061
0,114454
-0,430742
-0,487796
0,258597
-0,322294
0,363196
-0,821238
0,439354
-0,664955
-0,108677
0,106071
-0,144232
0,618022
-0,648273
0,204649
0,665876
0,240998
0,096730
0,201640
0,100188
-0,045400
1,322347
0,448589
-0,335123
-0,081330
-0,012767
0,565495
0,001751
0,115201
-0,581331
-0,676907
0,653355
1,168893
0,348402
0,306884
-0,432386
-0,772344
-0,129330
-0,782941
-0,712663
0,237248
0,010337
-0,665492
-0,654145
-0,316731
0,366806
-0,074353
-0,575587
-0,319990
0,472318
0,162873
0,340937
-0,062472
-0,192549
0,487003
1,026635
-1,003767
0,696140
0,217940
-0,279959
0,479454
0,180304
-0,440345
0,596872
-0,420113
0,348829
-0,474409
-0,337257
-0,299875
-0,162477
0,106126
-0,604453
0,296331
-0,521085
-0,393605
0,051305
-0,012635
-0,123199
-0,913076
-1,357667
0,160787
-0,648439
0,278899
0,145845
0,576315
0,691807
0,378010
0,271289
-0,139491
-0,470192
0,814813
0,203983
-0,459107
0,379213
0,412446
0,208788
0,365030
-0,324743
-0,312329
-0,113460
0,053979
-0,308851
-0,200769
-0,082204
0,656188
-0,521056
-0,213351
-0,262736
-0,370612
0,387520
-0,626286
0,043787
-0,115917
-0,076615
0,812169
0,483834
0,642962
0,360427
0,582536
-0,392467
-0,711347
-0,707312
-0,770374
-0,828090
-0,476446
0,609595
-0,071648
-0,335733
-0,805437
0,757960
-0,480045
-0,064719
-0,134508
1,360143
0,636280
-0,763306
0,686161
0,614471
-0,352173
-0,226068
-0,805082
0,009361
0,286030
0,260892
-0,709313
-0,439895
-0,140646
-0,109638
0,325793
-0,514879
-0,335935
-0,063281
0,493970
0,520136
-0,833574
-0,647434
1,079389
0,269173
-0,476187
0,056757
0,054166
0,006242
-0,917601
-0,049404
0,720723
0,617930
0,412853
-0,200718
-0,970069
-0,076401
-0,477516
-0,197551
-0,231555
0,425567
-0,111792
-0,598639
-0,301394
0,361039
0,110605
-0,364391
-0,524595
-0,299499
0,714615
0,161578
-0,571964
0,817386
-0,515103
-0,013039
0,559070
1,111233
-0,514943
-0,932014
0,142830
-0,041501
-0,374589
-0,863211
-0,885049
-0,826692
0,033355
0,249947
0,652007
0,868303
-0,090142
0,269591
-0,380829
0,475303
-0,354261
-0,162202
-0,625017
0,152765
-0,164345
-0,574986
0,349331
-0,029089
1,009407
-1,108874
-0,596702
-0,042938
0,154280
-0,311984
-0,610078
0,768368
0,311594
0,016635
1,000666
-0,228354
0,206855
-0,421521
0,155565
0,524475
0,041933
0,099040
-0,660357
0,320030
0,253858
-0,632716
-0,170884
-0,460936
0,646225
-0,096954
0,726465
-0,543018
-0,231826
1,082933
-0,212577
0,046625
-0,046334
-0,174329
-0,020751
0,445516
0,008323
-0,425996
0,068889
0,325387
-0,148356
-0,057876
0,474593
0,586483
0,231879
0,316972
0,037865
0,190300
0,219135
-0,205842
0,338626
-0,244490
-0,763992
-0,767308
-0,262204
0,089501
-0,414913
0,875431
-0,301710
-0,181725
0,230156
-0,609403
0,639942
-0,248470
0,166846
0,554577
0,517624
-0,451669
1,316024
0,244501
-0,219278
0,217192
0,168860
1,208894
-0,949891
-0,232234
-0,738696
-0,260300
0,227491
0,452591
-0,800073
0,734270
-0,074086
0,619560
-0,348149
-0,230583
-0,126719
0,670336
-0,040081
0,335126
0,171047
0,133461
-0,096984
0,922741
-0,426320
-0,379411
0,320942
-0,071166
0,143300
-0,152510
-0,026857
-0,225538
-0,329513
-0,480397
0,670447
0,746052
-0,868581
-0,504666
0,058631
0,569911
-1,196483
-0,699086
-0,319476
0,267752
-0,808241
-0,547663
0,086812
-0,550273
0,531605
0,541627
0,898328
-0,282024
0,234430
-0,066689
0,171626
0,833862
-0,711387
0,656032
0,998951
-0,151684
0,657376
-0,186183
0,528017
0,045204
-0,402145
0,287764
-0,210583
0,664584
-0,532978
-0,078195
-1,024549
-0,231428
1,109754
-0,916221
0,891075
-0,112693
0,362062
0,002442
0,254134
0,500701
-0,477917
-0,914313
0,467483
1,156612
0,240301
0,162966
-0,280776
-0,670021
-0,577397
0,188969
-0,554118
-0,604434
0,077524
0,508120
-0,496461
0,308951
1,055893
0,409634
-0,266582
0,376737
-0,089654
-0,107885
-0,256676
-0,254598
0,632080
-0,163490
-0,290486
-0,456912
0,802642
0,248365
0,474091
0,445190
-0,279637
0,304348
0,241670
0,071470
0,870608
0,221097
0,328010
0,915295
0,042423
-0,209656
-0,614167
0,337305
-0,288530
0,173143
0,068385
-0,291039
-0,777673
-0,119500
0,423902
-0,942676
-0,135769
-0,279516
0,918265
0,434791
0,139064
-0,600056
-0,307176
-0,983998
-0,165373
0,593976
1,441451
-0,972808
0,663782
0,090544
-0,340780
-0,212068
0,188733
0,277709
0,001774
-0,310276
0,042985
-0,203143
-1,436539
-0,402696
0,193310
0,363456
-0,336164
0,492323
-0,388893
0,345608
-0,664936
0,455611
-0,009970
-0,815012
0,127814
0,293656
0,494892
-0,116826
0,295296
-0,483965
0,150359
-0,286510
-0,153426
-0,528717
-0,318375
0,167980
0,539753
0,514885
0,480535
-0,755656
0,123985
0,331667
-0,818627
-0,230851
-0,303391
-0,080268
-0,499865
-0,189475
0,187554
0,647942
-0,324727
0,288298
0,978053
1,174601
0,586052
-0,396148
-0,878672
0,056419
-0,215699
0,222942
-1,377937
0,976650
-0,415298
0,497552
-0,207864
-0,196159
-0,349313
-0,837316
-0,027412
0,321958
0,986668
0,430856
0,379568
0,921372
0,546701
-0,252637
0,714237
0,117352
1,390310
-0,746917
-0,015998
0,497835
0,104995
-0,543302
-0,166790
0,259493
0,425340
-0,823815
0,498202
0,165534
-0,231171
-0,421022
0,021594
0,639550
1,268282
-0,271908
0,816926
0,389004
0,006368
0,190268
0,698671
-0,483681
-0,576031
-0,059774
0,272839
0,662528
0,311074
-0,432000
-0,355591
-0,066409
0,068436
1,098494
-0,063670
-1,569058
-0,103532
0,644744
-0,325226
-0,045657
-0,136051
0,499347
-0,681855
-0,401655
-0,102589
-0,277461
0,793481
0,551921
-0,263516
-0,983112
-0,424849
-0,367152
-0,737549
0,631234
-0,216186
-0,005743
-0,556185
0,140440
-0,129981
0,120088
0,459105
-0,143572
0,237907
-0,158731
0,068287
-0,148740
-0,159290
-0,358322
-0,305222
-0,328416
-0,522374
-0,320251
-0,130581
0,667165
0,887711
-0,633405
0,270915
-0,333986
0,145882
0,274599
-0,820967
0,217012
0,594279
-0,395194
0,209666
-0,504962
0,432298
-0,316065
0,172311
-0,161535
-0,043297
-1,249862
-1,315416
-0,454218
1,668309
-0,320945
-0,124927
0,577128
0,876738
-0,435033
-0,758846
-0,542650
0,451718
-0,942531
-0,441147
-0,724029
0,029723
0,498375
0,246761
0,633946
-0,504946
-0,142844
0,775738
-0,005147
0,743825
0,542032
-0,792662
-0,983175
0,428688
-0,336424
0,358228
-0,702870
1,050667
0,195568
0,116606
0,127301
-0,632743
-0,157887
-0,549072
-1,172180
0,149144
0,848373
0,286421
0,051060
-0,369730
0,289667
-0,793814
0,343750
-0,040613
0,257812
0,943437
0,303590
0,516886
-0,611508
-0,235838
-0,139928
0,091969
-0,163492
-0,131060
0,830389
0,156808
0,301832
0,109573
-0,468222
-0,303094
0,450848
-0,284986
-0,038757
-0,250211
0,188026
-0,735021
-0,213040
-1,269722
0,069464
-0,362133
0,260158
0,028821
0,197218
0,295341
0,272612
0,453461
0,647665
0,694464
0,042557
0,363344
0,384059
-0,779503
-0,144019
-0,107407
0,073553
0,781851
-0,148715
0,568551
-0,128398
-0,030712
-0,850008
0,006179
-0,828108
-0,775863
0,715892
-0,576580
-0,166971
-0,078592
0,121162
-0,514640
0,155504
0,852273
0,425276
-0,368020
-0,098318
-0,145003
-0,837073
0,604269
0,061550
0,069647
0,329920
0,275158
-0,805762
-0,697336
1,007333
-0,285599
0,138599
-1,386433
0,095866
0,118746
0,207292
-0,329377
-0,115466
-1,397865
0,361056
-0,446888
-0,391945
-0,214461
0,735755
0,138963
-0,786791
-0,588478
-0,427847
-0,116910
0,238242
-0,320342
0,108546
-0,752154
-0,582103
-0,291023
0,093449
0,653539
-1,135276
-0,204846
-0,268486
0,809270
0,019656
0,950633
0,292489
0,137464
0,073308
0,197708
-0,495417
0,457639
0,211711
0,042815
-1,257971
-0,617752
1,006227
-0,230932
0,194003
0,484193
-0,463821
0,297966
-0,381828
0,551745
-0,043017
-0,150454
-0,269936
0,191378
-0,380809
-0,084561
-0,013123
0,211348
-0,022463
0,112974
0,111884
-0,478177
0,657353
0,138881
0,439663
0,917770
0,022125
0,073660
-0,287185
-1,047057
0,154805
0,022259
0,112699
0,979700
0,167102
1,057264
0,215626
-1,167850
-0,165320
-0,582173
0,495921
-0,644347
0,820606
0,261297
-0,334749
0,735653
-0,197186
-0,070723
0,428241
-0,992828
-0,272371
0,051600
-0,033935
-0,084717
0,182397
-0,153938
0,557195
-0,389223
0,577482
-0,902533
0,102672
0,245597
-0,561916
0,150604
-0,432274
-0,219855
-1,156093
0,128891
0,192011
-1,215585
0,760319
0,197331
1,073836
0,027631
-1,127397
-0,252031
0,136145
-0,623686
0,453839
0,277323
-0,791889
-0,005378
0,270495
-0,134175
0,543365
-0,134568
0,094050
-0,194456
0,354481
0,637079
0,088376
-0,191435
0,378726
-0,202838
-0,907010
-0,876789
0,777849
-0,721968
0,816269
-0,231751
-0,052636
-0,095880
-0,285388
-0,682092
0,728095
-0,660418
-0,179866
1,025785
0,984731
-0,149701
-0,433624
-0,119401
-0,529991
0,391263
0,208874
0,310612
-0,488769
-0,006359
-0,342091
0,174669
0,068101
0,011364
-0,305816
0,764793
-0,470161
0,343770
-0,557175
0,290108
-0,375501
0,150455
-0,475738
0,225311
-0,866953
-0,179710
0,068096
-0,013472
0,755351
-0,199473
0,357972
0,618202
-0,123285
0,233629
-0,222724
-0,280791
-0,726775
0,049223
-0,026701
0,059148
0,389360
0,615832
0,400226
0,034470
1,015165
0,152844
0,112395
0,173815
0,320190
-1,064454
0,405325
0,015245
-0,180090
-0,144748
-0,151903
-0,078392
-0,480851
0,597840
0,097000
0,264429
-0,302400
0,451901
0,232723
-0,719966
0,326496
0,285708
-0,487231
-0,712980
0,655614
-0,442390
0,207238
-0,124920
0,111396
-0,385317
0,539673
0,184172
-0,055050
-0,014319
0,475997
0,169276
-0,414344
-0,175640
-0,307403
0,256702
-0,090007
-0,300931
-0,771622
0,685876
0,771770
-0,307514
0,935645
0,432049
-0,708163
-0,073602
0,991589
-0,216864
-0,296442
0,049230
0,096270
0,439074
0,505240
-0,040069
0,898886
-0,003356
-0,246557
-0,786943
-0,082059
0,329591
-0,525552
1,085218
-0,629294
-0,400074
-0,133460
0,128152
-0,118880
0,553690
-0,637355
-0,001170
-0,547263
-0,803309
-0,141144
-0,403256
0,971151
0,294010
-0,376280
-0,545697
-0,520191
0,106721
-0,468199
-0,434130
-0,195146
-0,568763
0,643442
-0,152677
-0,395232
0,697847
0,276570
0,971511
-0,427428
0,764524
-0,005108
0,698576
-0,249144
0,051790
0,578921
1,112903
1,045399
1,025301
0,328125
0,238689
-0,491881
-0,922335
0,311766
-0,138320
0,836133
-0,480137
-0,714121
-0,517978
0,063110
1,949397
0,885247
0,593658
1,385697
-0,327268
-1,308502
0,630650
-1,014150
0,679883
-1,020296
0,104430
-0,893892
-0,330500
-0,256118
0,347210
1,193361
0,942629
0,319077
-0,002504
-1,214094
-0,741805
0,229360
0,025712
-1,100813
-0,747831
-0,210210
-0,528094
0,480870
0,179985
0,016874
-0,891304
-0,082308
-0,143008
-0,977711
-0,619523
-0,706242
1,733422
0,393397
0,419226
0,988579
1,162922
-0,239304
0,613366
-0,485915
-0,982552
-1,243617
-0,018870
-0,079728
1,075916
0,416916
-0,573364
1,225946
0,286092
0,763228
-0,091191
-0,748336
-1,325522
-0,364816
-0,770917
-0,212122
0,260353
0,006218
0,722129
0,364320
-0,137245
-0,695425
0,461497
-0,011178
1,901160
1,060202
1,405383
-1,556896
-0,885970
-0,930509
0,537198
-1,095858
-0,998788
-2,507599
0,940002
0,250385
-1,026717
-0,550860
0,620157
-0,384707
-0,884301
0,793217
1,331183
-0,663267
-2,146443
0,569206
0,971852
-0,184347
-0,363991
-0,524661
0,505009
0,622465
-0,982419
-1,540894
0,397669
-0,672816
0,350805
0,498290
0,794640
-0,224952
0,045028
-0,347726
-0,234140
-1,055258
-0,673351
-1,516924
-0,470041
-1,565130
1,377218
-0,174504
-0,215640
0,181143
-0,948323
-0,945908
0,391867
1,835657
-0,050106
-0,683298
-2,186907
-1,991674
-1,048072
0,323920
0,626627
-0,445400
0,098257
1,322074
0,580709
0,105002
2,307069
-0,595263
-0,946824
0,784779
-1,025718
0,719610
1,728368
1,686738
1,414452
1,255845
0,226846
0,544400
0,847441
0,228763
-0,204980
-1,843262
-1,015358
-1,018847
-1,293888
-0,378041
-2,036531
-0,759489
-1,034315
-1,556583
0,551381
2,454040
-0,433516
0,613904
0,239897
0,095803
1,122516
4,625426
2,992284
1,983819
-0,232044
-1,367438
-2,144977
-1,633447
-0,576925
-2,938637
-0,825998
0,019552
2,210413
-2,038034
-0,927608
-2,351065
-0,475327
-0,308814
3,677853
0,250031
-0,914516
-1,912404
-1,615949
-0,923787
0,035877
0,435281
0,377894
0,807295
1,100625
0,633629
1,261919
-0,405552
-0,900103
0,376718
-0,513628
0,703796
0,293861
0,197543
-2,876112
-0,562948
0,432512
1,090649
0,584420
0,979544
0,137458
-1,767362
1,023061
0,501238
-0,958586
-0,218298
0,885524
-1,058907
-0,019959
1,660572
-0,119874
-1,749742
-1,454494
-0,867279
-0,382675
1,754138
0,858631
2,437070
0,390395
0,041126
-0,517216
-0,469375
-0,622380
0,853539
3,107293
0,718916
-1,248458
-0,137521
0,227786
1,753358
0,631591
0,270134
-2,613882
-0,129239
-0,355621
-0,046255
-2,265666
-0,747068
-0,716348
-0,487760
-1,939600
0,486644
1,362948
-0,330579
-0,848154
4,105366
1,479448
-1,284500
-2,999299
-0,810133
-0,863255
0,285678
-0,123883
-0,276503
-0,479787
1,296288
-1,154450
0,576113
2,116550
2,117796
-0,481783
0,741478
-0,824793
-1,006924
0,538462
0,372575
-4,041969
-3,260184
-1,761369
-1,183902
-1,095779
0,325175
-0,192592
0,334387
-1,365848
0,293427
0,927515
-0,219676
1,166385
-3,808370
-1,738610
0,118387
-2,329218
-1,111396
0,533413
0,962368
0,987687
-3,063978
-2,563632
-2,386410
0,784287
2,228051
2,816028
1,395583
2,926825
0,251172
1,899660
3,339974
0,563381
-2,301643
-4,118983
-2,796343
-1,421409
2,939983
-0,719671
0,982516
0,616165
1,763855
-0,545117
1,049143
-0,151719
-1,417651
0,380701
2,075638
0,940576
-1,428517
-2,288134
0,307848
-1,238142
0,907059
1,345881
2,338958
-1,945285
-1,094932
-2,594785
-2,167569
0,107215
0,006792
-1,361968
2,019289
2,700346
-0,566208
0,892646
-0,166350
-1,038707
-1,745862
0,293823
-1,797544
-1,675411
1,516997
0,570870
0,945044
-2,219985
-3,594688
-0,510968
2,194200
1,030289
1,614980
1,540809
1,174478
1,283869
4,916402
3,201391
2,841500
-0,455589
-0,940906
-0,951508
-0,770069
-1,426815
0,856320
0,051860
1,097419
-1,666934
-1,705955
-0,221936
0,148546
2,966844
-1,349853
-1,739508
-1,135654
-0,585543
0,624056
2,683721
2,714424
1,113281
-1,170871
0,537992
2,932743
-1,604457
-4,146754
-2,178868
-1,131530
-1,998167
-0,014505
0,025264
1,431652
-0,768585
0,815521
-2,602710
0,491507
1,133085
-2,701070
-0,842941
1,978119
1,067728
0,968475
-0,444093
-2,547742
-1,604264
-1,152186
0,884527
0,224525
0,523411
0,773774
3,423102
2,233155
-1,151508
-0,123944
0,643737
1,537086
0,238132
-2,435054
-5,625403
-3,060961
0,938136
1,558284
0,099374
-0,158597
-2,616037
0,302012
1,787100
0,056015
0,542577
0,517867
0,223750
-0,173526
-0,127134
-0,789567
-0,254201
-0,490394
0,046104
0,054073
1,729200
0,562678
0,087388
1,154263
2,434313
0,560972
-2,306075
-1,848354
1,850103
0,771958
-0,254482
-0,502521
-0,922510
1,564213
0,033954
-0,440555
0,096335
-1,832463
-2,748838
1,447385
-2,204934
-0,614396
-0,147206
-0,726183
-3,261326
-1,331142
-2,954888
-0,328537
1,679112
-0,371796
1,282481
1,507741
3,593792
4,035833
1,435958
0,621772
1,697588
0,517770
-0,778410
-3,542472
1,529437
-1,077272
-0,033772
-0,692297
0,358819
0,511465
2,499840
-0,332805
0,460731
-1,710319
-1,488138
-0,870906
1,220032
1,752519
-2,896199
-2,291865
-1,001058
-1,073149
1,584514
1,900380
0,736166
1,017086
0,764556
-0,588886
2,897473
1,691619
-2,649389
-1,346944
2,163687
0,111361
-1,935116
-0,797742
-0,335944
0,165332
-0,545417
1,906507
2,787190
-0,241873
-3,191358
-0,410757
-1,980132
2,852879
0,900012
0,174081
-0,521853
0,419646
-4,041849
-1,384960
-2,012380
-0,842628
0,709472
1,462040
0,968356
1,106510
1,356905
1,718475
0,987789
1,771760
0,429820
-1,099926
1,859367
-0,013286
-1,331953
-2,221762
-1,083905
-1,659491
-0,385291
-3,378782
0,367293
-2,039752
-0,071651
-1,129189
2,119615
1,232141
-1,504623
-1,547821
-2,751727
-1,792301
-3,096311
-1,688626
2,204342
-2,713591
-1,487592
1,009267
3,627269
1,159661
-1,343298
-0,075361
0,155498
1,012399
-0,366620
1,161403
0,233843
-0,822306
-0,544330
0,911869
1,317678
-0,877785
0,119737
0,402615
1,471976
3,940267
-1,518573
1,032132
-1,864558
1,436081
0,586543
0,131470
3,175020
2,091269
0,481073
-0,047094
-0,617200
-2,095423
1,139966
0,469929
-1,230938
-0,799456
-0,537860
-0,748168
0,068413
3,706850
2,172955
0,511258
-1,094253
-1,016881
1,780845
-0,036302
1,563110
-1,959952
-0,532905
-1,016089
2,301968
0,894243
-0,814758
0,550378
0,540306
0,552465
0,643807
2,662404
4,376751
3,151249
1,253358
1,488174
-1,375949
0,789041
-0,405791
0,370025
-1,118178
-0,856033
-4,343135
1,122772
-1,443953
-1,347936
2,664807
0,604885
0,099085
-0,014380
-0,825522
-0,843146
-0,938877
-1,124099
3,054165
-0,438295
1,483074
1,976775
1,845033
-0,738867
-0,484915
-3,114293
-1,448013
2,057534
-0,923486
-0,642372
-1,052640
-2,248752
-2,802364
-0,781886
2,568258
-0,285474
-2,063950
-1,548466
-1,518406
-1,441527
-1,627477
1,141223
-2,692611
1,090167
0,678159
2,283242
2,176759
-1,263297
0,651181
-0,325015
-0,203263
1,809286
3,264318
1,870371
-0,092859
0,797929
-0,965516
-1,099530
-2,467909
-0,928116
0,473265
2,244560
2,299754
1,254543
0,626911
-1,855370
0,258073
0,853552
-0,045199
-1,671947
-0,504132
0,313062
-0,477790
0,073128
-2,316433
-1,710070
-0,080351
-0,066668
1,170835
0,126847
-0,875662
0,019257
2,429435
1,237999
3,355616
1,081756
3,170515
1,313244
-1,157453
-0,745812
-0,076488
-1,202541
0,382089
1,206647
0,832285
-1,772562
1,552066
-1,193454
-0,643151
-3,118869
-2,626870
0,723344
0,806080
3,586597
2,152075
-3,747843
-2,692943
1,068255
0,870675
-2,525645
1,533137
2,142671
2,681030
0,762098
-0,104974
-1,037448
-0,903676
-0,291137
0,160405
0,981533
0,157589
1,751656
1,467901
-2,589060
-1,809936
-0,314921
-1,277868
-0,776528
0,030223
0,084492
1,833958
-0,674848
2,142565
0,507281
2,086779
2,576518
0,986870
-0,260398
0,781545
-0,482475
0,646602
1,336306
-0,025952
-0,958748
-1,615150
-1,637223
-0,798591
0,586916
-0,485710
0,846583
2,407868
0,937972
2,697170
1,583238
-1,923347
1,603167
1,009543
-0,965245
-0,153714
1,590135
0,043704
-0,253877
0,047096
-0,060935
1,283773
-1,564742
-3,211965
0,848098
-1,327876
-0,169145
3,283760
3,090902
1,328985
-0,019428
-3,647725
0,200984
1,782256
-0,487807
-0,064060
0,459667
0,858808
1,271055
-0,377131
-0,543657
0,148877
-0,160544
-0,641632
0,708820
-0,437755
-1,481883
-0,983673
0,873117
1,928119
0,459363
0,315643
-0,448184
-0,102913
-0,381414
1,332612
-0,857867
2,037639
1,190527
0,061677
-1,757074
1,161328
-2,194593
-0,535721
-0,412193
-0,386345
0,789537
1,021322
0,192367
0,551602
-0,670806
0,279917
2,810562
0,834127
0,983826
0,633416
0,828891
0,233291
0,569680
-0,058588
-1,307710
-0,789689
0,619213
-0,455638
-0,563078
0,356263
0,965517
-0,017827
-0,343943
-0,681170
0,078468
-1,212264
-0,296453
0,588299
-0,235623
-2,073983
-1,216925
-0,370557
-1,374715
0,687698
0,638683
0,539289
0,025558
1,789643
0,376510
-0,025973
0,975222
-0,628369
0,208029
0,666556
1,339607
1,736378
0,174155
-0,205526
-1,174586
-0,956544
-3,235799
-0,610483
0,331995
-0,315395
-0,360149
0,786012
-0,765829
-0,884236
0,554837
0,381080
0,441656
0,262677
-0,092075
0,045689
-0,003168
-0,472463
-2,127075
-1,460231
0,388880
1,169383
1,008311
0,229712
2,547390
0,950914
0,108600
0,530801
-1,008150
0,227632
-1,044285
1,742510
-0,697135
0,995503
0,293233
-1,166167
0,400425
1,169744
3,700763
0,649417
-1,039619
-1,396675
0,549841
1,482986
-0,340940
0,500719
0,099231
-0,534442
-0,714545
0,041140
0,588933
0,232193
0,707509
0,217851
-0,333769
-0,556638
-0,388907
-1,540056
-0,961988
1,537880
-0,150138
-0,963203
0,290259
-0,247583
-0,547260
-0,921944
-0,774029
0,057852
0,637682
-0,537315
0,229637
0,031305
-0,401052
-0,347668
0,479277
-0,432194
-0,912917
-0,047598
1,065684
-1,357767
-1,498256
-0,679130
-0,014853
0,036538
-0,890703
-0,167765
0,998775
1,052588
0,268930
0,292762
-0,567614
0,421819
0,832560
-1,218871
0,211663
-0,566815
0,830841
1,163436
0,862030
0,385751
0,386439
0,421196
0,189614
0,757803
-0,677640
0,765386
0,155378
-0,530998
0,113950
-0,473842
0,360442
0,405372
0,406325
-0,318561
0,598350
0,233921
-0,370838
0,032247
-0,641239
0,665628
0,129651
-0,435359
1,102990
0,182042
-0,709561
0,074137
0,234072
0,243917
0,735860
-0,858238
0,455659
0,135727
0,465519
0,320833
-0,299736
0,746191
0,060567
-0,138210
0,718040
1,053386
0,661483
-1,111419
0,179936
0,189483
-0,209118
0,928928
0,238511
-0,436911
-0,010452
0,028319
-0,097890
0,841186
0,619944
-0,526993
-0,563493
-0,081576
0,308175
-0,149731
-0,234192
-0,311602
0,545890
0,240040
0,452038
0,255068
-0,013459
0,443759
-0,303465
0,618288
0,480777
0,268301
-0,520786
-0,431154
0,470853
0,654378
-0,278622
0,402390
-1,109776
-0,403997
-0,923675
-0,836870
-1,098532
-0,195664
0,488559
1,203798
-0,595099
0,832873
0,204879
-1,147830
-0,319039
-0,418324
0,261922
-0,124262
0,202638
0,933599
-0,229268
0,277708
0,145682
0,630895
0,014527
0,045147
-0,155575
-0,408293
-0,349211
-0,666985
-0,749037
-0,697631
-0,142740
0,184166
0,016451
0,099663
-0,274270
0,054400
-0,336057
0,737614
0,838095
-0,585318
-0,110784
-0,961597
0,232744
-0,835433
-0,843075
0,312035
0,245143
-0,104226
0,151816
-0,274748
-0,624871
0,500422
0,504716
0,963987
0,215377
-0,114201
0,322549
-0,158312
-0,119058
-0,604451
0,050434
-0,515253
0,486597
0,910677
0,388842
-0,013734
-0,172382
0,116347
-0,369878
-0,605969
0,014203
0,419149
-0,776681
0,070028
0,402206
-0,293439
-0,257368
0,071118
-0,585123
0,905429
0,028526
0,416564
-0,245424
-0,838697
-0,059627
-0,040725
0,007494
0,307955
-0,325682
-0,449250
1,360189
-0,166871
0,808543
-0,196704
-0,293717
-0,463405
-0,302452
0,006734
0,128868
0,138327
-0,789118
0,167932
0,430174
-0,525514
-0,410482
-0,276638
0,450261
0,610426
-0,009542
0,030494
0,630528
-0,103168
0,237141
0,094696
0,274828
0,427543
0,489181
0,169032
-0,164374
0,359509
0,092432
-0,616040
0,400289
1,066931
0,422800
0,077966
-0,134756
0,439344
0,594835
-0,336408
-0,159843
0,339702
0,070387
-0,160515
0,120879
0,929751
-0,334674
-0,748220
-0,178517
-0,258811
0,474519
-0,214622
-0,463727
-0,389300
0,215859
0,433704
-0,201789
-0,727433
0,515486
-0,687990
-0,199076
-0,160771
0,000217
-0,223060
0,361833
-0,540871
0,124166
0,410315
0,547733
-0,316366
-0,280026
-0,478462
0,311576
0,198869
-0,588175
1,009891
0,838403
-0,011460
-0,041288
-0,046507
-0,237010
0,018823
0,278030
0,101969
-0,099197
0,337664
-0,271256
0,079021
0,299173
-0,089341
-0,172028
0,682810
0,526482
-0,381699
1,034548
0,221041
0,742121
-0,067227
-0,184680
0,414654
0,196192
-0,670173
0,260597
-1,001893
0,232592
-0,255502
0,234628
-0,946171
-0,269025
0,300506
-0,114084
0,420155
0,188254
-0,631071
0,402713
0,490170
0,269500
0,435703
0,470916
-0,183174
0,185636
0,428827
-0,407884
0,569256
-0,788335
-0,495180
-0,174808
0,194224
-0,409590
-0,344191
0,568017
-0,228661
0,957898
0,340165
-0,664470
0,188017
-0,702648
0,076482
0,014238
-0,562880
0,351096
-0,081668
-0,053033
0,060916
-0,064352
-0,267892
0,271252
0,132374
0,065203
0,698073
0,061135
-0,115291
0,128053
0,906431
0,307534
0,113583
-0,027894
-0,377244
0,233348
0,438693
-0,229735
0,904264
0,502001
-0,138204
0,169472
0,309251
0,267709
0,468615
0,166666
-1,011356
-0,462811
-0,541701
0,490179
-0,174133
-0,155211
-0,602826
-0,383976
-0,604758
-0,372692
-0,062261
0,487928
0,223292
0,114158
-0,504792
0,493214
-0,321314
0,007688
0,252501
-0,841839
0,245893
0,520125
-0,284150
0,715459
1,094627
0,816136
0,387196
-0,246200
-0,151074
-0,425760
-0,087245
-0,438906
-0,849980
-0,249358
0,172908
0,535478
0,360961
-1,378073
1,310298
0,227560
-0,250396
-0,443487
-0,133495
-0,140456
0,000322
-0,083916
-0,130920
-0,387649
0,348108
-0,110354
0,314711
0,599228
0,056238
0,068572
-0,279035
-0,489848
-0,469914
1,312589
-0,026449
-0,465718
0,443002
0,007510
0,478857
0,074701
-0,132295
0,075187
0,520766
-0,222759
0,413843
0,037822
0,734733
0,683204
0,745580
-0,280311
0,030773
-0,287858
0,157304
0,037205
0,435779
0,026739
0,358273
-0,729502
-1,359586
-0,105897
0,441036
-0,080933
-0,094549
-0,481963
-0,108816
0,315422
0,208159
0,573651
0,954081
-0,432470
-0,848646
-0,515073
0,497747
0,235851
0,396922
-0,922732
0,024430
0,363165
0,179438
-0,101188
-0,498863
0,981366
0,601538
-0,221350
0,304076
0,619493
0,155690
-0,501881
0,377283
-0,849114
-0,667298
-0,311542
0,384489
0,411108
0,282190
0,416374
0,382993
0,036489
-0,283372
0,268452
-0,645338
-0,015616
0,241897
0,332947
0,313133
-0,354170
-0,737459
1,043735
-0,066810
0,539805
-0,420038
-0,138806
-0,270636
-0,032203
1,011987
-0,476265
-1,063116
0,111789
0,871357
-0,167545
0,700596
0,174086
-0,424769
0,395342
0,316895
-0,274310
-0,208760
-0,504201
0,888098
-0,102189
0,353131
-0,391391
-0,045523
-0,061335
0,156062
-0,147846
0,413145
-0,299921
-1,183038
0,568332
-1,493803
0,373806
-0,099543
-0,047291
0,356078
-0,599495
-0,154674
-0,146104
-0,161608
0,655078
0,231021
0,273272
0,274569
-0,547011
0,317753
-0,040813
0,112788
-0,659059
1,013392
-0,003983
-1,109999
-0,102482
0,031819
0,317815
0,070353
0,301740
0,156924
-0,378408
0,037577
0,146095
-0,357652
-0,142323
-0,163536
-0,716213
-0,061761
0,530522
-0,033952
-0,800103
0,509651
0,696528
-0,482308
0,222978
0,592800
-0,332625
-0,049605
-0,418627
0,688716
0,754985
-0,473931
-0,309918
-0,644018
-0,219235
0,007436
0,482448
-0,050771
-0,304333
0,398977
0,503786
0,310620
-1,020169
0,113262
-0,407064
0,412035
-0,198134
0,957363
-0,923465
1,242721
0,731481
-0,202959
0,090632
-0,067856
0,407847
0,034815
-0,246100
0,326022
0,008061
0,481944
-0,207726
-0,021654
0,052841
0,233724
0,028439
-0,163286
-0,277099
-0,566265
0,321846
0,334021
0,489070
-1,444004
-0,239922
-0,207751
0,019302
-0,740473
0,336496
-0,968260
0,895496
0,462955
0,742726
0,073034
0,175887
0,116883
0,031460
0,630514
0,299017
-1,021475
0,024413
-0,697133
-0,306049
0,458736
0,167167
1,601951
-0,070371
-0,708247
-0,458429
-0,345489
-0,758912
0,293046
-0,576500
-0,043875
0,586525
0,496434
-0,600936
-0,835871
0,441218
-0,402025
-0,012076
0,527716
-0,289892
0,350986
-0,201084
0,192866
0,561011
0,910076
0,426333
-0,111049
-0,328103
0,859100
0,630344
0,578411
0,572775
-0,934464
-0,033831
0,147107
0,028731
0,319439
-0,608366
-0,267011
0,031738
0,117998
0,602661
-1,087883
0,903315
-0,245501
0,723428
0,112905
-0,779643
-0,533917
-0,164393
-0,511995
0,388532
-0,283344
-0,033960
0,664987
-0,196948
-0,012480
-0,655395
0,762938
-0,648742
0,115868
0,264685
0,078732
-0,589580
-0,119823
-0,149882
0,448049
0,551284
0,074506
0,224306
-0,494172
-0,510658
-0,730065
0,317135
-0,380297
0,721381
0,214569
0,920938
-0,394685
-0,007876
0,548836
-0,281565
-0,307133
-0,570678
-0,472061
0,202068
-0,068802
0,115126
-0,232061
-0,544594
-0,229097
0,933776
-0,599085
-0,233765
0,732586
-0,554809
0,110259
0,193513
-0,472301
0,150171
-0,475102
0,651103
-0,042054
-0,902386
-0,198688
-0,150240
-0,297786
0,757869
-0,113036
-0,284353
0,359422
-0,598279
-0,261359
0,710650
1,211804
-0,585404
0,119882
-0,195990
-0,349395
-0,074588
-0,005695
-0,207164
-0,114873
0,447174
0,352236
0,323232
0,124884
0,039950
0,883786
-0,500410
0,017601
0,436968
-0,409922
0,484802
-0,098023
0,531743
0,914831
0,097756
0,159121
-0,577688
0,217375
-0,254856
0,900003
-1,039289
0,665946
0,093195
0,661439
0,244468
-0,840336
0,406110
-0,067929
-0,296390
0,388851
0,020126
0,049287
-0,021605
0,285908
-0,154657
-0,246520
-0,244445
-0,150538
0,191407
-0,087063
-1,090781
-0,380113
0,367334
0,299569
0,749518
0,419019
0,280645
0,070650
-0,082121
0,457696
-0,277797
-0,428160
0,000606
0,847445
1,168183
-0,304665
-0,660137
0,202909
-0,360545
0,984765
0,417536
-0,284163
0,211093
0,782277
-0,152188
0,352030
-0,443823
0,282171
0,105455
0,369149
0,049072
-0,884719
-0,298936
0,175130
0,237540
-0,467410
-0,563095
-0,383812
0,078222
0,185953
-0,381495
0,128629
0,133868
0,594237
0,694062
-0,355889
0,475399
0,174039
0,593853
0,144725
-0,213844
0,822108
0,405119
-0,460515
-0,163942
0,618671
1,075119
0,667620
0,376730
0,302252
0,582914
-0,272808
0,202899
-0,375158
-0,058743
0,282154
-0,942126
-0,833843
0,139840
-0,529318
-0,394567
0,729978
0,110740
-0,389385
-0,611870
-0,241307
-0,996390
-0,711010
0,195827
-0,332285
0,206620
0,014363
-0,039156
-0,981410
0,358392
-0,050531
-0,246184
0,361963
0,360483
0,344975
-0,066773
-0,018199
-0,103256
0,451500
0,333690
-0,637935
-0,735105
-0,417718
0,051991
-0,233146
-0,125261
0,121063
-0,086844
-0,143351
0,787868
-0,382128
0,334439
-0,584556
0,008034
0,266553
-0,208091
-0,626044
0,496096
-0,130840
1,279044
-0,241746
-0,364886
0,320606
0,393920
-0,233605
0,695628
-0,279433
-0,428181
-0,349278
-0,371502
-0,125517
1,356310
-0,508634
0,317324
-0,597521
0,234633
0,899737
-0,207852
-0,716530
0,243900
-0,277316
-0,919762
-0,186159
0,006366
-0,251290
-0,203635
0,090943
-0,581067
-0,012986
-0,754970
0,119922
-0,652258
0,084038
0,445168
0,076757
0,599740
-0,503191
-0,912869
-0,332307
-0,230436
0,174102
0,794136
0,275893
-0,089779
-0,316094
-0,225384
0,168481
0,269815
-0,775297
-0,200628
-0,581784
0,184738
0,392275
-0,130318
-0,250775
0,974809
-0,078695
0,247329
-0,314016
0,643661
-0,391861
0,255204
-0,862253
0,380268
-0,070881
-0,459276
-0,298237
-0,180452
-0,029775
-0,456482
0,498791
0,322494
-0,299706
0,794546
-0,067243
-0,504949
-0,320889
-0,774075
0,334064
1,347105
0,255954
0,497707
0,507818
-0,041114
-0,059182
-0,263593
-0,399426
-0,188772
0,266279
-0,516085
0,172849
0,769900
0,059135
0,188924
0,348290
0,907816
0,611211
-0,403930
0,205732
-0,456691
0,626311
-0,213271
0,026487
-0,577084
-0,070944
-0,842218
0,439538
0,981973
0,050295
0,487781
0,151986
0,068006
0,444425
0,292254
-0,046819
0,324898
-0,021383
0,157322
-0,066993
-0,416649
0,757481
-0,083025
-0,492557
0,147961
-0,041147
0,056030
0,342996
0,269698
0,537168
-0,417320
-0,845378
-0,324084
-0,353936
0,566882
-0,334258
-0,046238
0,110968
-0,367565
0,078655
0,530134
-0,288555
0,585439
-0,900155
0,426118
-0,465125
0,515121
-0,248180
-0,025626
-0,849809
-0,634461
-0,201375
0,588259
-0,255983
-0,204633
-0,776450
0,756289
-0,376893
1,326566
-0,307785
0,807456
0,930475
0,599161
-0,493522
0,077371
-0,168974
-0,453075
-0,243702
-0,417556
1,029540
0,007584
0,499829
-0,596815
-1,060586
-0,215462
0,238507
0,831805
0,097006
-0,260783
-0,083387
0,001035
-1,229198
-0,171990
-0,438971
0,002022
0,036338
-0,166156
-0,346848
0,187434
-0,236890
-0,034602
0,071244
-0,144950
0,691615
-0,655448
0,086434
-0,055937
0,473949
1,226459
0,044868
-0,473731
0,383805
-0,214770
-0,221268
0,340709
-0,525266
-0,941664
-0,176229
-0,306971
-0,368121
0,295439
0,356090
-0,298494
-0,098976
-0,860557
-0,382731
0,198222
0,702513
0,114829
0,137096
-0,132443
0,171222
0,302591
0,190285
0,346918
0,724091
0,330094
-0,230099
0,200391
0,116861
-0,320897
0,034568
0,726866
0,301098
-0,792310
-0,240957
-0,452412
-0,152345
0,045293
-0,127977
1,043333
0,363893
-0,003459
-0,190268
0,641462
-0,665887
-0,571366
-0,314430
0,069154
-0,293296
0,419014
0,524980
0,161606
0,157586
0,270501
-0,105912
-0,042039
-0,091577
0,080041
-0,006887
0,444909
-0,448034
-0,569931
0,031958
0,165818
-0,295033
1,440961
-0,298622
0,486763
-0,445230
-0,466093
-0,206952
0,530888
0,297090
0,008594
0,092738
0,302856
-0,052135
-0,137605
0,468519
-0,379360
-0,086589
-0,907236
1,065671
-0,512551
0,094340
0,213013
-0,675996
-0,616644
-0,674112
0,066600
-0,102380
0,650809
-0,551477
0,781334
0,230434
-0,540078
-0,362173
-0,356679
0,396167
-0,081826
0,301309
0,170671
-0,111621
0,590230
-0,215792
0,124898
-0,479635
-0,192148
0,111102
-0,324351
1,734023
0,192326
0,760128
-0,758596
-0,492210
0,266768
0,586491
-0,221603
0,167367
-0,076281
0,450712
-0,225463
-0,947274
-0,190966
0,109247
-0,302100
-0,530349
-0,312613
-0,441190
0,048294
0,047156
-0,606331
-0,172770
-0,578464
-0,391781
-1,015275
0,491524
1,233893
0,886844
-0,045627
0,213648
0,198816
0,298072
-0,930877
-0,514194
0,328915
-0,435876
-0,965806
-0,040768
-0,025694
0,140493
0,019481
-0,593972
-0,038640
1,006828
-0,055399
0,343388
0,261000
-0,120714
0,361752
0,011298
0,280819
-0,059934
-0,374039
0,222487
-0,304176
0,039902
-0,097851
-0,151211
0,259504
-0,241346
0,480132
0,393347
0,168721
-0,018762
0,011673
-0,632599
0,289696
-0,233040
-0,784052
-0,437873
-0,368966
-0,368311
0,172984
-0,409656
-0,181182
0,445537
0,182616
-0,191677
0,254770
-0,446377
0,278830
-0,568352
-0,706358
1,201797
1,123162
-0,712772
0,629780
-0,250265
0,263005
-0,164860
-1,129380
0,755518
-0,166382
-0,023796
0,554301
0,078873
-0,231022
-0,482644
-0,361327
-0,501702
0,185803
0,022870
0,251876
-0,354020
0,039478
-0,006853
-0,575852
0,401728
-0,239216
-0,277652
-0,415473
0,306059
0,789834
0,725823
-0,400441
0,087859
-1,079457
-0,876292
-0,297763
0,053732
0,698278
0,866853
-0,132161
-0,123140
0,216005
0,038073
0,415851
-0,653441
0,339728
-0,211176
-0,884625
-0,088489
-0,201147
0,039219
0,299075
-0,078947
0,234424
-0,049258
-0,085936
0,182277
-0,659614
0,580940
-0,300713
-1,390459
0,679821
0,826333
-0,080867
0,319727
-0,657203
0,731265
-0,439973
0,862711
0,856724
0,346340
0,404883
-0,343608
0,224008
-0,061924
0,214146
-0,252046
-0,170693
-0,314786
0,195859
-0,803149
-1,094239
-0,125948
-0,948801
-0,009253
-0,083359
0,258910
0,755301
0,956658
-0,380363
0,655759
-0,161713
-0,161050
0,724093
-0,826504
0,013199
-0,491102
-0,004256
0,186295
-0,753209
0,173173
-0,076913
0,768190
0,814864
0,680078
-0,259106
-0,029335
0,384603
0,267753
0,712536
-0,575098
-0,579998
0,460132
0,213763
0,276050
-0,189304
0,319328
0,520340
0,828728
0,261713
0,386895
0,822106
0,087928
-0,372036
0,491251
0,163567
-0,107780
-0,610816
-0,745099
0,065358
-0,324224
-0,757183
0,058176
-0,786233
1,227068
-0,230623
0,259786
-0,304383
0,404049
-0,318263
-0,038271
0,349422
-0,360101
-0,835515
-0,004835
-0,207528
-0,644366
-0,503413
-0,377776
0,064895
0,678716
1,011273
-0,778577
0,429669
1,080669
-0,368751
0,796320
0,256843
-0,728552
0,082031
0,213437
-0,179963
-0,628905
-0,380735
-0,267833
0,390856
-0,086983
0,281278
-0,994459
-0,132257
-0,260440
-0,530794
-0,295716
0,139642
0,131637
-0,188037
0,436076
-0,123337
0,580754
0,261682
0,528599
-0,485256
0,255699
0,201224
0,230701
0,399018
-0,472663
0,805834
-0,658676
-0,177649
0,535872
-0,372344
0,271222
-0,539678
-0,002436
0,257421
-0,134064
-0,155565
-0,641174
0,211078
0,566305
0,226243
-0,651469
-0,841879
-0,182875
-0,439022
-0,639455
0,963898
-0,204190
0,220250
-1,101380
0,938192
0,416011
-0,139475
0,122910
-0,477920
0,167296
0,405678
-0,540618
-0,678877
-0,326443
-0,009737
-0,014619
-0,794203
0,632968
-0,182663
0,167498
0,058590
-0,033083
0,376305
0,370844
-0,580486
0,196832
-0,147600
-0,119533
0,936690
0,124937
-0,306017
0,278376
-0,674766
0,472272
-0,720627
0,399230
-0,668097
-0,086474
-0,506770
0,121666
0,187629
-0,518303
0,103907
0,399272
0,447113
-1,038708
-0,823116
0,757195
0,170493
0,994326
-0,471421
-0,343643
0,233395
-0,138239
-0,109909
0,218582
0,233913
-0,155622
0,293437
-0,758611
-0,213965
0,085231
-0,684136
0,005209
-0,565686
0,387795
0,154004
0,177427
-0,185322
0,312326
0,258865
-0,147737
-0,063341
-0,410272
-0,986635
-0,131509
0,682369
-0,584741
-0,414890
-0,340003
0,141096
0,077711
0,219599
0,254090
0,173419
-0,410903
-0,691734
-0,001719
-0,083559
-0,257389
-0,244924
-0,719143
-0,687626
-0,552095
-1,192950
-0,413531
0,089366
0,486660
-0,189993
-0,714428
-0,032142
0,616590
-0,948805
-0,633997
-0,038799
-0,246076
-0,808095
-1,267793
-0,689209
-0,316234
0,230366
0,505232
-0,042208
0,274838
-0,634158
-0,740145
-0,998059
-0,160607
-0,254602
0,167762
0,421191
0,139581
-0,023246
0,261770
0,536636
-0,011684
-0,102875
0,042706
0,678152
0,088835
0,706040
0,619417
0,859433
0,016533
-0,062803
0,449940
-0,712551
0,118099
0,664160
0,553376
0,560726
-0,138546
0,419915
0,836404
0,111707
-0,195067
0,988005
0,329110
0,335340
-0,386086
-0,941006
0,097008
-0,222074
-0,355105
-0,491930
-0,119667
-0,174814
0,597231
0,665453
-0,412298
-0,347021
-1,000851
-0,086045
0,002911
0,678524
-0,171045
0,462333
0,041272
0,379592
-0,689559
0,949110
0,079225
0,306600
0,328267
-0,718902
-0,221749
-0,175223
0,113076
0,220292
0,226389
0,233052
0,066383
-0,065565
-0,039887
-0,520817
0,660020
0,115688
0,185168
-0,226900
0,387957
-0,161532
0,633745
0,769674
0,136185
0,082058
1,174108
-0,370964
0,000291
0,438391
0,727320
-0,450820
0,785222
0,574548
0,223539
-0,692984
0,851126
-0,394201
0,275946
0,011876
-0,468480
0,646464
-0,443774
0,298848
0,538992
-0,640553
0,063900
-0,444402
-0,000501
0,622844
-0,128540
-0,148592
0,648428
-0,545294
-0,392752
0,739634
-0,111304
-0,366696
0,073444
-0,031567
-0,094406
-0,269431
-0,352625
-0,321961
0,317071
0,344794
0,785275
0,376064
-0,539237
0,537529
-1,047026
0,015402
-0,172287
0,474811
-0,916520
-0,095828
-0,022944
-0,361841
0,185200
-0,219066
-0,718105
-0,296756
0,383765
0,436853
-1,530343
-0,573979
-0,268599
0,593917
0,669169
-0,044435
0,245830
0,791880
-0,875195
0,324845
-0,462496
-0,572165
0,902275
-0,819304
0,562532
-0,388224
0,661026
0,052981
0,329368
-0,025419
0,256522
-0,019782
-0,159607
0,291659
-0,314169
0,272691
0,310250
-0,964945
-0,140001
0,315899
0,029526
0,267782
-0,866026
-0,148576
-0,570705
0,011878
-0,041351
0,066242
0,143616
0,053099
-0,783133
-0,353729
0,499454
-0,395462
0,034555
0,034519
-0,677139
-0,803105
-0,420441
0,763706
-0,350087
-0,052452
0,138767
0,385637
-0,067924
0,409043
0,672646
-0,210563
0,897796
0,539971
0,706909
-0,361137
0,162560
-0,360537
1,222466
0,328754
0,132352
0,063758
-0,080331
-0,080682
-0,984822
0,083433
-0,908855
0,599716
0,577298
-0,004260
-0,074007
-0,537542
0,850920
0,372754
-0,907965
0,689294
-0,190895
-0,270035
0,621906
-1,147657
-0,583559
0,665419
0,247120
0,641184
0,588988
0,047299
-0,798489
1,504379
-0,831173
-0,227358
-0,274798
-0,170859
0,129861
0,121487
-0,092134
-0,082285
-0,266892
0,367643
-0,079881
-1,040009
-0,258336
-0,450967
-0,871980
-0,285771
0,350861
0,162711
0,526397
0,125733
0,377100
-0,189191
-0,162218
0,731777
-0,706698
-0,957609
0,402907
-0,672939
0,517254
0,373759
-0,186932
-0,891343
0,077658
0,040337
-0,166632
-0,678395
-0,901711
0,198219
-0,834468
0,368822
-0,236027
-0,901931
-0,287425
-0,327646
-0,045201
0,002653
-0,615359
0,292320
-0,811505
0,446857
-0,710969
-0,062321
-0,561918
0,576472
0,099149
0,269332
-0,468525
0,550772
-0,446931
-0,173187
-0,722951
-0,234588
0,263245
-0,142929
0,096386
-0,337549
0,292777
0,320252
-0,632429
-0,391050
-0,579023
0,261895
0,376581
0,141991
0,009788
0,256255
-0,093290
0,195656
-0,034951
0,402368
-0,718632
0,322591
-0,548936
0,195006
0,685639
-0,343479
-0,669824
0,227160
-0,524007
0,512794
-0,090278
0,323351
-0,453465
-0,601364
0,849576
-0,501564
-0,681867
0,105473
-0,203196
-0,031044
0,515204
-0,125048
-0,573615
0,318573
-0,563464
-0,337094
-0,732891
0,499790
-0,071744
0,347690
-0,480907
0,147055
-0,010939
-0,001067
0,494957
0,185033
-0,393308
-0,376789
0,533639
-0,033954
0,267406
0,217594
0,220502
-0,676490
0,178514
-0,053932
0,473839
0,628943
0,244209
0,417673
0,745837
0,709387
-0,553245
0,680414
0,931354
-0,598939
0,627254
-0,708390
-0,412238
0,991811
-0,135236
-0,141879
-0,546827
-0,511139
0,388290
-0,329004
-0,056493
0,117714
-0,082054
-0,337493
-0,385299
0,627245
0,645157
-0,796422
-0,983479
-0,368557
1,178579
0,053538
0,536735
-0,675352
0,125613
0,342883
0,055062
0,180142
-0,957837
-0,759243
-0,066850
-0,518740
-1,101743
-0,527154
0,237977
0,817231
1,089876
-0,289238
-0,231918
0,396265
-0,200312
-0,230174
0,532955
0,868518
-0,355001
-0,505965
-0,367501
0,047449
-0,054448
0,470027
-0,099102
-0,119161
0,006188
0,222470
0,183237
0,744784
-0,849218
-0,175215
-0,186480
0,425022
-0,175762
0,238151
0,269092
-1,089305
-0,056220
0,370097
0,480159
-0,629641
0,426183
0,898639
0,065837
-0,127078
0,017067
0,095916
0,188810
0,214100
0,228164
0,438813
0,430011
0,526665
-0,684108
0,223847
-0,450660
0,606149
-0,216232
0,149877
-0,853283
0,406568
0,176043
-0,968271
-0,507882
-0,817291
-0,412081
-0,422507
0,283130
-0,400797
-0,195956
0,265208
0,413430
-0,453716
-1,132449
0,147103
0,140431
0,067557
-0,196284
0,694889
0,084544
0,606330
0,149145
-1,074522
-0,590121
0,450686
-0,314181
-0,019284
-0,694625
-0,321709
0,273990
-0,272302
0,221672
0,326639
0,733710
-0,379805
-0,008770
0,811772
-0,862638
0,426262
-0,405726
-0,231026
0,822419
-0,108972
0,855387
0,451799
-0,228858
-0,843711
0,252280
0,541504
-0,292094
-0,193681
0,026840
-0,074774
-0,166150
0,005398
-0,315869
0,028221
0,643703
-0,128531
-0,618984
-0,073724
-0,911474
-0,488986
-0,283540
0,034351
-0,090000
-0,494225
-0,031411
-0,440330
0,950371
-0,204971
0,243107
0,987093
0,183771
-0,439772
-0,157392
0,748381
0,496553
0,306557
-0,406488
0,176790
0,330630
0,237158
0,130399
-0,459768
0,198572
0,342235
-0,638970
0,039924
0,501347
-0,455754
-0,077365
-0,020754
1,084227
-0,141779
0,664791
0,941688
0,334009
0,418316
0,306816
0,744227
-0,152235
0,020162
-1,103378
0,577022
-0,430853
0,864182
0,610963
0,133066
-0,610819
0,146799
0,122108
-0,563463
-0,050635
-0,396718
-0,020580
0,982171
-0,330648
0,729726
0,572553
0,368391
0,597810
-0,377490
-0,018291
-0,487597
0,166326
0,494425
0,864844
0,112442
0,992700
0,081107
0,420212
0,202138
0,108931
-0,068074
0,162973
-0,347903
-0,388527
0,138587
-0,051569
0,162176
0,119503
0,564014
0,120429
-0,240869
0,366973
0,094410
-0,522565
0,303739
-0,176085
-0,175190
-0,345508
0,342138
-0,498473
0,161770
0,124171
0,037116
0,717649
0,257121
-0,264137
0,275952
-0,635329
-1,011835
0,144377
0,429475
-0,278056
0,883323
-0,734033
-0,788968
0,590352
0,072379
0,871735
-0,239241
-0,047262
-0,392316
0,771191
0,106555
-0,291906
-0,445935
-0,423902
-0,378112
-0,116858
0,085831
-0,728033
-0,302886
-1,127714
-0,154710
-0,405116
-0,458852
-0,217244
0,144929
0,183960
-0,044980
-0,098771
0,129391
0,464615
0,281307
-0,002538
0,068654
0,941006
0,179851
1,054480
-0,026860
0,053453
0,265053
0,326788
-0,725652
0,782572
0,796916
0,800585
-0,102174
0,537414
-0,051825
0,214802
0,040495
-0,324557
0,243854
0,282971
0,049954
0,201961
-0,078219
-0,174101
0,532062
0,312360
0,287652
-0,361475
0,180161
-0,164806
0,100865
0,517292
-0,257875
0,147691
0,142224
-0,558464
-0,131125
0,511989
0,598473
0,397995
0,099156
0,005958
0,266324
-0,290538
-0,643419
0,419657
0,852684
0,331656
0,029555
-0,331312
0,523936
0,535029
0,555061
0,635985
0,387194
0,290321
0,571502
0,067327
-0,516447
-0,306392
0,274838
-1,038558
0,040864
0,152475
-0,752779
-0,238835
0,454111
0,086272
-0,240936
-0,212458
0,168510
-1,173838
-0,165999
0,111153
0,039934
-0,196667
0,198842
0,430235
-0,319986
0,319472
0,681642
0,110309
1,234712
-0,392061
-0,430972
0,259954
0,252477
-0,415205
-0,513838
-0,096639
0,887900
-0,649485
-0,095192
-0,159306
0,146886
0,483259
-1,474506
-0,145252
-0,199441
0,236440
1,390110
0,016721
1,148809
0,857620
-0,018782
-1,423529
0,651845
-0,474510
-0,150239
-1,378579
-1,418825
-0,892037
-0,499663
0,873586
0,300228
0,646299
1,476619
1,465504
-0,023415
0,436229
-0,089715
-1,275602
-0,584624
-2,229179
-0,666933
-0,395023
-1,071408
-0,625329
0,317660
2,682223
-0,077410
1,412043
0,907032
0,024621
-1,845251
0,437135
-0,176137
-0,493020
0,253570
0,345743
-0,651524
-0,494802
-1,519109
0,228582
0,223229
0,729996
-0,139570
-1,245767
-0,476619
0,781790
-0,930529
0,307295
1,274742
-0,550952
-0,599556
-0,439743
-0,019404
-0,708652
0,120816
-1,153169
-1,080600
-1,332970
-2,766374
-1,832349
0,808335
0,067306
-0,061929
-0,736870
0,266243
0,311501
0,726167
0,812036
1,186432
0,348160
-0,186371
0,510871
0,164091
-0,884253
-1,043598
1,761992
-0,139622
-0,007141
0,491864
0,796411
1,401967
-0,014986
0,106571
1,744536
1,341328
0,190272
-0,788404
0,555401
1,214068
0,006888
-0,509895
-1,802609
-0,540110
-1,859496
-0,257263
-0,166224
-0,412170
-0,208902
-1,090803
0,206399
1,961922
-0,106229
-2,887407
-0,138476
0,436910
-0,444622
-2,075538
-1,665819
0,380202
1,730858
0,778104
1,007558
-1,157927
0,338011
-0,144822
-0,163232
0,133979
-1,279819
0,380515
1,474654
0,708349
0,762788
-0,534441
-1,247602
0,720279
0,048496
0,503210
1,567853
-1,092588
-0,894015
-0,125286
-1,816390
0,541934
0,330042
-0,583016
1,709523
-0,748422
-1,556317
-0,696519
1,424249
1,309756
-0,605489
-0,987017
-0,559610
1,201654
-1,316619
-1,755874
0,174283
0,942737
-0,635844
-1,212045
0,535642
-0,020479
-0,369147
1,862574
2,390269
0,785488
-0,618838
-0,401583
0,112885
-1,894554
-3,757888
-3,130702
-1,815414
-0,607811
-0,000193
0,011936
3,270233
0,018895
-0,297331
-0,473067
-1,035345
0,222135
0,783196
0,962369
0,274238
0,004936
-0,447700
1,329097
1,946078
0,980944
0,211467
-2,131948
-0,380806
-1,239756
-1,271472
0,251725
-0,986598
0,976195
0,708958
0,520806
-0,709955
0,141035
0,411111
-0,968249
-1,135118
-0,317950
0,440761
-0,765855
1,922032
2,130837
-1,102971
-1,542575
0,420080
0,616239
1,565850
-0,633542
-1,197762
1,058577
0,521073
-0,682590
0,906860
-0,508182
-0,576693
-1,502547
-2,400759
-2,041124
-0,438685
0,473187
-2,032671
0,783164
-1,786315
-1,309143
-0,225077
1,700576
-1,004317
-1,266528
-0,328227
1,535416
2,911941
-1,003180
0,343153
-0,808417
0,886415
-0,073267
0,015367
1,043796
-0,080985
-2,186438
1,811059
1,144213
1,511637
-0,544137
0,476717
-1,183614
-0,448214
-0,540690
-1,082304
-0,510881
0,346109
-0,412486
0,997404
-1,883122
1,058988
-0,855418
-3,144027
-4,267064
-0,975729
0,469314
1,029723
1,864831
0,522703
1,185760
1,182907
2,037386
1,880004
-3,614602
-0,385702
3,021448
1,898378
0,536674
2,053451
2,000073
-0,265311
-0,821305
2,329509
-0,020237
0,380691
-1,846547
-0,281502
-3,027968
-1,650068
-1,829858
-2,333756
-2,063293
-1,204419
0,521341
3,037206
1,639081
-1,089176
-2,820480
-2,284300
-2,479905
1,054139
2,102961
0,796757
-0,080659
-0,546308
-1,201308
-2,179258
0,433527
-1,555946
-0,249413
1,048580
1,085472
-1,801462
0,275720
-2,881143
-0,213543
-0,188780
0,395832
-0,654529
-0,198267
-1,845219
0,414375
1,479398
0,676740
1,296889
0,253506
-1,591755
-4,038734
-2,367466
0,869656
2,047886
0,268384
0,312755
1,681065
2,074820
2,098777
1,211088
-0,974371
-1,949101
-0,468426
-0,359296
-1,577252
-1,510586
1,909383
2,913345
1,806333
1,894745
-0,323153
-2,284577
-0,779714
1,744753
-0,673209
0,853620
0,735955
-0,078971
0,503190
-0,836423
-3,963046
-1,442090
-1,057066
-0,928391
-0,703728
-1,349301
-0,642114
-0,289744
-1,820628
-2,035352
-0,369600
3,175370
3,051451
0,440314
-3,249561
1,471959
0,656300
-2,977935
-2,556367
1,403032
3,643466
1,800694
0,393245
2,353334
2,842697
1,107952
-1,943046
-0,240589
-1,482979
-2,748583
-1,448696
-2,379776
0,253697
2,205626
1,392815
1,959748
3,788489
0,637949
-1,909249
-2,138259
1,781783
-0,159682
-0,903563
1,657076
0,672404
-2,505708
0,863381
1,501463
0,222924
1,414234
-1,325654
0,776183
1,809619
0,743156
-2,118242
-2,265065
0,640780
3,492600
1,130015
0,482620
1,484227
0,369632
-1,461562
-1,158503
-0,124506
1,013493
2,883778
-0,452657
-4,161838
-3,188966
-1,546767
-0,114885
0,061860
2,379415
2,093867
0,060502
-1,172764
-1,995434
-0,279138
-1,896540
0,037793
-0,204979
-1,887301
1,747066
3,113206
1,252366
-2,763816
-0,308446
-0,390126
-1,081085
-0,899652
-2,994036
-2,859027
5,370495
0,981025
3,465873
3,603722
1,209144
-0,201013
0,685596
-1,691160
-0,817280
0,497603
0,983256
-1,648254
-0,926206
-2,703194
-2,201296
-0,323604
0,397836
2,115242
3,396373
3,564518
0,623806
0,884032
-0,222893
-0,392192
-2,583697
1,056896
0,782657
-2,770212
-1,241607
-0,036530
-0,753887
2,862941
0,016654
3,497616
3,148199
0,062902
-3,885360
-2,054109
-2,104847
-1,668640
-1,569413
-2,948210
1,875252
0,266158
-0,872475
0,622285
-1,027952
-0,498470
-4,194938
0,192257
0,616742
0,357326
0,565282
0,041345
0,472526
-1,273089
1,896693
2,912663
2,485607
3,150793
2,613432
-0,962886
-1,436286
2,231368
1,090817
-0,195564
-0,208340
-0,827332
1,118918
0,262001
0,355153
-1,071193
3,264086
1,768323
-1,712656
-3,896595
-3,146061
0,237122
-0,283866
1,762091
1,089385
4,158761
0,128289
2,220218
2,666569
4,874982
1,460016
-1,302185
0,146013
-0,035714
-4,572725
-3,615440
-2,260023
-0,149410
0,447848
-0,490930
1,884967
-3,002369
-2,206661
1,003210
-0,986383
2,297614
0,391832
-2,596546
-0,905461
-0,819531
-1,975956
-2,549522
1,995593
1,924480
-0,443429
-3,000454
-1,393206
1,342095
0,155704
0,147854
1,651867
0,666680
0,050092
2,348370
0,946413
1,888399
-0,095594
2,569909
0,717859
0,774623
-2,361326
-2,344609
-1,710955
-0,261578
-0,050235
0,938235
1,556054
0,024450
1,548378
-0,837050
1,195348
1,764421
1,053086
3,592461
-0,803372
-6,130782
-3,525988
-0,145582
-2,022590
1,350575
-2,867740
-0,538737
0,150401
-1,026795
-2,219310
1,788040
-0,617202
0,342262
1,514371
1,188559
2,868122
1,727954
1,271542
0,792142
-0,160692
-3,200250
2,118204
-1,321371
-0,848325
-3,363484
-2,129390
2,529091
2,110141
-0,017094
0,836027
0,692537
-2,452042
-0,489068
-3,763283
-2,042394
1,773276
2,988860
1,687276
-0,587826
-0,664656
0,187236
-0,941695
-1,165717
-0,837139
-2,422230
-0,335269
3,418847
0,130842
-0,375531
-0,405285
-0,067945
0,480505
-1,078353
4,573402
1,647847
-1,272491
-1,000642
2,198063
-0,339960
0,770567
2,590248
0,161269
0,629890
-2,698770
1,416188
-1,318292
-0,218764
0,225104
-0,024936
-0,925225
-0,283531
-1,020513
-1,135575
0,974200
3,539724
2,562863
1,935888
-0,006007
0,622112
0,863380
0,878392
-0,970316
3,582639
2,979740
0,682249
1,006179
2,397954
-1,116873
-1,702811
-1,659327
-0,541621
-2,580809
-2,033723
-0,809141
0,870554
-0,078101
-0,291241
1,277014
0,600680
1,836629
3,286151
0,186456
-2,271749
-3,355009
-1,354249
3,780086
2,156139
1,090623
-0,619837
-1,091494
1,595523
-0,781101
-2,630536
-1,533197
-2,568808
0,340566
1,607005
0,889927
2,847806
1,166684
2,519356
-1,206046
-1,135550
-0,762321
0,887737
0,533816
1,408093
0,833284
-1,775449
-1,461240
0,488865
0,458586
0,021921
0,743464
0,193719
1,220001
-0,172976
-0,322002
-0,642946
-1,565272
0,013934
-1,205281
1,573078
0,477521
-0,981438
-0,900098
0,155592
0,436974
-1,828083
1,676800
1,460329
3,875297
-0,027053
-2,155408
-1,117210
0,767742
1,647370
-0,053005
-0,267201
0,057500
-0,383169
-2,420767
-0,074252
0,324506
1,024289
-0,096589
2,516420
-0,228357
-0,123157
-2,198334
1,772806
0,964056
0,702201
-1,431683
-0,826842
0,301168
0,181830
-1,207323
0,390382
1,756436
3,992319
2,047969
-0,302130
-1,325531
0,184982
-2,012039
-1,446114
0,072761
-3,354194
-3,627476
-1,942639
1,354225
0,957620
-2,162328
0,179151
3,573651
0,598891
1,431692
2,005758
2,299495
-0,380905
2,401131
3,763802
-0,588717
0,757987
0,345170
-0,975659
-1,436807
-0,011944
-0,501814
-2,266057
-1,819690
0,950314
0,428621
0,476181
-1,351977
-2,502008
-1,784650
0,316702
-0,467664
-0,092796
1,152011
1,124273
0,554061
0,558512
-0,167116
1,372139
1,272584
-1,140397
-0,498799
-0,173118
0,501317
-0,300299
0,507514
-1,383879
0,527177
-0,189300
-0,105460
0,689726
-0,516445
-1,950868
-0,716264
1,680145
0,036604
0,622647
1,713428
1,108989
0,180282
0,043833
-0,974153
0,216800
-0,355520
-0,258092
0,832369
1,726188
1,578773
0,190656
-1,448033
1,291232
-1,080173
-2,499454
-2,150804
-0,699192
0,340365
1,772345
0,487253
0,386987
-0,572292
-0,180151
0,249495
-1,266144
-1,228134
1,448738
0,503073
-0,414293
-0,109523
1,455865
0,432148
1,394431
-1,111962
-0,587009
0,129469
-1,187070
0,724733
0,180461
-0,177853
-0,832405
-0,596055
1,110959
0,664918
0,166735
-0,313721
2,745640
1,575866
-1,279129
-1,211715
0,542605
1,117179
1,800682
1,471501
1,130959
-0,178656
0,743101
1,417197
1,733546
0,029311
-0,079814
-1,086357
-1,746431
-0,162402
-0,656837
0,752101
-1,142366
-0,707806
-1,128099
-0,526708
-1,520900
-1,610466
-1,063463
1,207370
1,569919
1,738584
-0,607161
-0,249856
-0,046153
-1,258114
-1,367170
-0,986241
-1,288184
2,408325
-0,508890
0,448824
1,212069
-0,746305
0,897351
-1,144781
0,215982
0,093309
-0,063467
1,262589
1,930016
0,199887
1,180086
0,702754
0,916175
1,862516
0,272889
-0,532547
-0,036016
-0,003420
1,226917
0,154189
0,442861
0,082850
-0,136907
0,435492
1,875881
-0,317025
0,490392
-1,663016
-0,444350
0,043801
0,525450
-1,834788
-0,940191
-0,133442
-0,179242
-0,571000
-0,256157
-0,223866
0,541774
0,160798
1,398480
1,149684
-0,653787
0,526626
-0,804227
-1,111952
-0,293014
-0,651402
-0,344545
0,120584
-0,259159
-1,480071
-1,272169
-0,071325
-0,669927
-0,205718
0,630265
0,906704
2,441299
2,552655
0,180459
-1,082858
-1,368366
-1,266038
-0,801652
-0,264459
-0,360750
-0,438681
-0,377744
-0,127349
0,255962
2,145719
1,410825
-0,315774
-0,272381
-0,554530
-1,900736
0,626228
0,204447
0,319867
0,745938
-0,309708
0,086681
-0,042999
-0,327881
-0,784087
-0,107440
0,256226
0,318890
-0,550712
-0,251375
1,388952
-0,265183
1,390433
-0,211340
0,096363
0,532017
-0,157067
-0,092175
0,773975
0,619765
0,864657
0,503476
-0,171919
0,810308
0,287102
-0,280879
0,102826
-0,192831
0,336386
0,427839
-0,218770
0,590806
-0,003496
0,542881
0,091199
-0,330353
-0,381800
-0,548849
0,310589
-0,658201
0,023608
-0,328164
-0,125443
-0,974953
-1,099560
0,100167
-0,286450
0,685519
0,400705
-0,417312
-0,712981
-0,267409
-0,196540
-0,111544
0,802695
-0,592313
-0,384975
0,091776
-1,128668
-0,109156
0,071248
-0,195692
-0,044406
-0,272257
0,365812
-1,413302
-0,674956
-0,404246
0,002248
0,056650
0,980688
0,376922
0,286269
0,601425
0,644978
0,350363
0,671378
0,462068
0,217485
0,490107
-0,234308
0,481313
-0,778872
0,421852
-0,569791
0,077983
1,004340
0,254557
-0,328246
-0,183543
0,343273
0,356546
0,685734
-0,232389
0,332772
-0,547826
0,710392
0,058303
-0,498317
0,414470
0,231099
0,428043
-0,103401
-0,137573
0,307031
-0,509293
0,609833
-0,259515
0,193047
0,224291
0,321290
0,346563
0,982524
-0,521177
0,112253
-0,834175
0,356253
-0,169807
0,195441
0,278187
-0,471225
0,669015
-0,798876
-0,430361
-0,329625
-0,158585
0,841701
-0,079202
0,270254
-0,038063
0,240252
0,137448
-0,348430
0,435746
0,889727
0,045723
0,263962
-0,180209
-0,848907
-0,941716
0,634777
0,238852
-0,630934
-0,306549
0,284652
-0,875446
0,098708
0,325039
0,717255
0,347256
0,286088
0,232483
-0,161797
-0,574423
0,223124
-0,089468
-0,721964
-0,143314
0,247341
-0,314680
-0,606283
0,746738
0,041611
0,209181
0,026739
0,387851
1,127479
-0,156839
0,336696
0,082155
-0,091976
-0,179375
-0,351430
-0,862153
0,355864
-0,073145
0,120419
1,300312
-0,234808
-0,157581
-0,640547
-0,111024
0,179479
0,449082
0,154361
0,389504
0,155628
0,595835
0,239697
-0,219592
-0,343203
-0,276118
-0,325680
0,722726
-0,411106
1,187743
0,133341
0,489461
-0,080087
0,566663
0,464740
-0,135587
0,130059
-0,518630
0,092202
0,108615
-0,910887
-0,361889
-0,076727
0,300717
0,533732
-0,238378
0,114002
-0,600653
0,356930
-0,120877
0,803485
0,209057
-0,639226
-0,930996
0,263263
0,347248
0,004173
0,816152
-0,044808
-0,953257
-0,832827
-0,068867
0,246188
0,664334
-0,315974
0,762110
-0,306327
0,676306
0,953281
0,710860
-0,186725
-0,279731
0,359245
-0,212148
-0,762941
0,895736
0,117688
-0,172773
-0,334190
-0,148893
-0,070766
-0,555588
0,462033
-0,159783
1,006381
-0,631315
0,424453
-0,578665
0,192398
0,443842
0,255619
0,439064
0,471214
0,167516
-0,129751
0,255873
-0,715383
0,717597
-0,771573
0,611019
-0,246002
-0,967012
0,090176
-0,374578
-0,640512
-0,176368
-0,675994
0,374687
-0,529153
0,973083
0,575749
0,355336
0,392284
-0,570724
-0,389058
-0,236240
0,050326
0,457690
0,001363
-0,320933
-0,098705
-0,104765
-0,564343
-0,223440
0,278841
-0,224552
0,121151
0,695599
0,746389
-0,034279
-1,461956
-0,814046
-0,640228
0,240968
-0,594688
0,014909
0,120397
0,456983
-0,978927
-0,211958
0,661146
-0,610899
0,338571
-0,095168
0,376506
-0,430618
-0,189496
0,104807
0,371218
-0,036667
0,168490
-0,484856
-0,248014
-0,056431
0,039647
0,691780
0,212932
-0,398146
1,014574
-0,124445
-0,849734
-0,223560
0,706591
0,012197
0,487696
0,486440
0,100707
0,796582
0,250105
0,510236
0,199990
-0,583455
-0,047471
-0,375616
0,532510
-0,388903
0,294738
-0,953946
-0,380380
-0,378866
-0,197237
-0,223308
-0,131542
0,254115
0,413396
0,687686
0,267991
-0,103249
-0,385194
-0,100868
-0,603907
-0,121596
0,073460
-0,229471
-1,182092
-0,068875
0,935956
0,127235
0,345191
-0,652923
0,333344
-0,133335
-0,732962
0,099822
0,026293
0,812728
-0,116802
-0,595060
-0,217315
-0,617437
-0,040429
0,876467
0,329587
-0,614069
-0,261463
0,029887
0,505503
-0,310502
-1,159023
0,682916
0,222298
-0,401351
0,082167
0,652890
-0,038090
0,538244
0,136858
-0,501677
-0,632752
0,122672
0,054377
0,420107
0,669326
-0,086276
-0,075284
-0,023821
-0,696027
0,008750
-0,334921
0,186618
-0,351818
0,189988
-0,079270
0,212580
0,369569
0,305852
-0,393518
0,238658
-0,057327
0,494396
-0,461458
1,131439
0,280508
-0,196213
-0,032131
-0,260073
0,515917
0,679645
-0,430924
-0,446212
1,320482
0,547159
-0,892425
-0,158643
-0,756217
-0,454177
-0,623128
-0,014747
0,286344
-0,322954
-0,200756
0,099036
-0,303994
-0,796231
-0,682674
0,241561
0,073971
-0,225973
0,797318
-0,767223
0,251836
-0,075074
0,176258
0,638259
0,295305
0,425876
0,139534
0,364641
-0,331163
-0,472620
0,211132
-0,878085
-0,376832
0,662286
-0,152638
0,083188
-0,586757
-0,501307
0,184409
-0,006705
-0,232706
0,524465
0,078451
-0,195019
-0,255189
0,419683
-0,339813
-0,734276
-0,402664
0,740263
0,346939
-0,226707
0,293867
-0,640998
0,563597
-0,514382
0,039108
0,134078
-0,502176
-0,517021
-1,190363
0,053380
-0,372719
0,400017
0,223630
-0,627797
0,570915
-0,093695
-0,219849
-0,666077
0,064615
0,752541
0,654262
0,271635
-0,782902
0,296462
0,145251
0,544638
-0,140975
-0,483743
-0,374661
0,208122
-0,428871
0,009291
0,336464
0,110428
-0,272903
0,373350
0,059756
0,222502
1,407231
-0,336754
0,485395
0,237710
-0,606339
0,485608
0,599108
-0,558471
0,376608
0,103581
0,069855
-0,529314
0,152997
-0,243168
-0,688117
-0,056484
-0,041953
0,239492
0,264153
0,393939
0,716915
-0,641998
0,296144
0,388946
0,362102
0,562149
-0,588838
-0,562487
0,582190
-0,773712
-0,703916
0,658717
1,251996
0,315133
-0,026978
-0,344657
0,343817
-0,209075
0,096111
-0,921227
-0,263986
-0,037695
0,443704
0,006442
-0,505574
0,324585
-0,617079
-0,181516
-0,169291
0,232487
-0,154744
-0,156988
0,718043
-0,051745
-0,265623
-0,442829
-0,609607
-0,150655
-0,714892
-0,002243
-0,951974
0,762066
-0,445931
-0,747599
0,236849
-0,122410
0,784722
-0,336532
-0,290309
-0,049366
0,635814
-0,518511
-0,260413
-0,182672
0,966342
-0,247982
-0,204256
-0,056183
-0,465155
0,590918
-0,100276
-0,270049
-0,655372
-0,295329
-0,075979
0,051067
0,184247
-0,322478
0,302958
0,328422
-0,319503
-0,129090
-0,377102
-0,770129
-0,097269
-0,415365
0,851116
-0,095223
-0,469365
0,515147
0,023713
-0,665748
-0,075427
0,827544
0,176711
-0,171637
0,150393
0,500019
0,309264
-0,225286
-0,479534
-0,507769
-0,070116
-0,156362
-0,148259
-0,319582
-0,864331
-0,502134
0,599346
-0,484255
-0,380290
-0,458851
-0,417655
-0,108840
0,187165
0,638233
0,394797
0,470274
0,186730
-0,027579
-0,593474
0,401156
0,250906
-0,272384
-0,487908
0,250337
-0,786809
-0,424920
-0,105984
-0,935543
-0,318070
-0,262770
0,247748
0,128397
-0,143382
-0,038677
0,374525
-0,324676
0,350855
0,413551
-0,302237
-0,189881
-0,210895
0,169890
0,033370
0,742799
0,500797
0,307853
-0,000448
-0,507750
0,853711
0,621598
-0,392508
-0,824605
0,347458
0,354883
-0,012770
0,843698
0,342162
0,624777
-0,062468
-0,632152
-0,748911
-0,251057
0,658028
-0,711302
0,218188
0,890666
-1,112215
0,868311
0,357607
-0,454997
-0,331356
-0,118369
0,000116
0,276547
0,253003
-0,152427
0,311868
-0,719343
-0,924774
0,182495
0,194244
0,151905
0,822175
0,414599
0,392101
0,384535
0,358206
0,003272
1,428035
-0,489913
-1,117940
-0,220727
-0,038699
-0,264121
-0,468466
0,015546
-0,382674
1,031017
-0,184734
0,409110
-0,452373
-0,345478
-0,417556
0,234997
0,287269
-0,245103
-0,818484
0,162644
0,521351
-0,110267
1,154512
-0,654958
-0,035333
0,057090
0,164796
-0,006969
0,028150
0,364470
0,468413
-0,004247
-0,433861
-0,163881
-0,797043
0,412618
-0,938780
0,152137
-0,182162
0,499419
-0,583930
0,000217
0,022535
-0,583023
0,810439
0,624143
-0,118727
-0,583192
-0,003434
-0,033439
0,594239
0,154667
-0,039915
-0,021688
-0,286870
-0,288664
-0,773011
-0,674576
0,245709
0,570597
-0,781082
-0,207656
-1,182639
0,504571
0,331284
-0,402858
0,555891
-0,253970
-0,104685
0,182317
-0,169555
-0,158441
0,236224
-0,980029
0,439611
-1,389116
-0,094262
-0,106580
0,373057
1,453035
0,507903
-0,290349
-0,464397
-0,219293
1,107871
-0,112409
0,631913
-0,023663
-0,543503
-0,083485
-0,450128
0,465366
-0,064320
-0,293407
-0,244529
0,235734
-0,901515
-0,727623
-1,077862
-0,076651
0,682798
0,570307
0,799957
-0,694079
-0,548271
-0,083074
-0,091330
-0,977716
-0,003684
0,006868
0,429041
-1,072417
-0,407507
0,294603
0,177859
0,113963
-0,029819
-0,034793
0,045950
-0,118729
0,172505
-0,360691
-0,300198
0,119165
-0,604574
-0,143733
-0,069178
0,391917
-0,375755
-0,427697
-0,506045
-0,447287
0,092866
-0,254170
-0,278428
-0,569805
0,413441
-0,386382
-1,270340
0,252403
0,585715
0,114290
0,267971
-0,052233
-0,693691
0,574949
-0,079630
1,197973
0,128413
0,149112
-0,007638
-0,154644
0,028911
0,516796
0,711185
0,539942
-0,205350
-0,591900
0,196335
0,237907
0,376331
-0,814497
-0,468327
-0,328407
0,276559
-0,589962
-0,278165
-0,635817
0,498770
0,147695
-0,261657
0,229379
-0,205475
-0,643494
-0,375815
-0,350846
-0,552035
-0,141941
0,594079
0,126580
-0,035554
-0,604040
0,482915
0,359207
-0,104170
-0,599585
-0,407027
-0,399012
-0,085702
0,397245
